 Step; Kinetic energy; Potential energy; Total energy; Calculated temperature; Mean momentum squared; Pressure; 
           1 ;   365.87073966438072      ;  -48040.370609732970      ;  -47674.499870068590      ;   9.9965380670154858      ;   1.3245853985142282E-031 ;  0.11861820082430988     
           2 ;   365.74241832458455      ;  -48040.111663913303      ;  -47674.369245588721      ;   9.9930319950096553      ;   4.6240035767748459E-032 ;  0.11858326500614869     
           3 ;   365.61247872611409      ;  -48039.850761518697      ;  -47674.238282792583      ;   9.9894817079774221      ;   2.8495986145005452E-032 ;  0.11854183415381754     
           4 ;   365.48091862422558      ;  -48039.591482246324      ;  -47674.110563622096      ;   9.9858871445864033      ;   2.1498820450534994E-031 ;  0.11849966510298156     
           5 ;   365.34773509692036      ;  -48039.319740405786      ;  -47673.972005308868      ;   9.9822482250001627      ;   3.0486123661252635E-031 ;  0.11845705461844912     
           6 ;   365.21292493282738      ;  -48039.051144858320      ;  -47673.838219925492      ;   9.9785648614756042      ;   2.5268466709456081E-031 ;  0.11841273304546912     
           7 ;   365.07648545606185      ;  -48038.782362622718      ;  -47673.705877166656      ;   9.9748369809007098      ;   1.2259681755259737E-031 ;  0.11836892000996066     
           8 ;   364.93841498520823      ;  -48038.501358633832      ;  -47673.562943648627      ;   9.9710645373347173      ;   1.6974795325011565E-030 ;  0.11832304250129462     
           9 ;   364.79871154805181      ;  -48038.224512435561      ;  -47673.425800887511      ;   9.9672474768917070      ;   6.4952720495940420E-031 ;  0.11827677034238852     
          10 ;   364.65737330680361      ;  -48037.941325319742      ;  -47673.283952012935      ;   9.9633857493584905      ;   9.7711806401135932E-031 ;  0.11823153861595435     
          11 ;   364.51439879906150      ;  -48037.652561179646      ;  -47673.138162380586      ;   9.9594793147784593      ;   4.1698496799351986E-031 ;  0.11818576350252206     
          12 ;   364.36978703329567      ;  -48037.370506376290      ;  -47673.000719342992      ;   9.9555281460603773      ;   1.1844495576773605E-031 ;  0.11813862977094357     
          13 ;   364.22353750667156      ;  -48037.075447846830      ;  -47672.851910340156      ;   9.9515322294655686      ;   6.7303834480450674E-031 ;  0.11809180117902086     
          14 ;   364.07564930394227      ;  -48036.781720109197      ;  -47672.706070805252      ;   9.9474915399870323      ;   2.7761766633070482E-031 ;  0.11804442725437962     
          15 ;   363.92612184784679      ;  -48036.480362709895      ;  -47672.554240862046      ;   9.9434060618526487      ;   1.9752870178531289E-031 ;  0.11799650920522389     
          16 ;   363.77495523305811      ;  -48036.186989966336      ;  -47672.412034733279      ;   9.9392757976489694      ;   4.8627289008682583E-031 ;  0.11794804601986897     
          17 ;   363.62214954405420      ;  -48035.887779132303      ;  -47672.265629588248      ;   9.9351007496842580      ;   1.1510841093069667E-031 ;  0.11789903839481418     
          18 ;   363.46770482921033      ;  -48035.579146080898      ;  -47672.111441251691      ;   9.9308809192802379      ;   2.0527672257487135E-031 ;  0.11784948560380630     
          19 ;   363.31162211963220      ;  -48035.272868991153      ;  -47671.961246871520      ;   9.9266163346093510      ;   4.8430244447774322E-031 ;  0.11779893662639880     
          20 ;   363.15390315805962      ;  -48034.955383167500      ;  -47671.801480009439      ;   9.9223070432877698      ;   8.7163784976903305E-031 ;  0.11774832948743987     
          21 ;   362.99454966524934      ;  -48034.638724503639      ;  -47671.644174838388      ;   9.9179530923310537      ;   2.8132447053908283E-031 ;  0.11769717845246519     
          22 ;   362.83356348290670      ;  -48034.317008652353      ;  -47671.483445169448      ;   9.9135545320594254      ;   4.0376507047161978E-031 ;  0.11765071466329316     
          23 ;   362.67094674659370      ;  -48033.993567416022      ;  -47671.322620669431      ;   9.9091114208219153      ;   2.7765120168493195E-031 ;  0.11759853957862930     
          24 ;   362.50670230402670      ;  -48033.667126502492      ;  -47671.160424198468      ;   9.9046238364255217      ;   1.0106647618073320E-031 ;  0.11754582129809431     
          25 ;   362.34083381098367      ;  -48033.335645795407      ;  -47670.994811984427      ;   9.9000918787555623      ;   3.2435539911820394E-031 ;  0.11749256269196900     
          26 ;   362.17334485927904      ;  -48032.999388251832      ;  -47670.826043392553      ;   9.8955156459497875      ;   1.4234260254132127E-031 ;  0.11743423827894682     
          27 ;   362.00423939491327      ;  -48032.654009547136      ;  -47670.649770152224      ;   9.8908952458231632      ;   4.9119112800713634E-031 ;  0.11738001100766264     
          28 ;   361.83352107844394      ;  -48032.311549004655      ;  -47670.478027926212      ;   9.8862307783916208      ;   6.7032170041244444E-031 ;  0.11732524701313617     
          29 ;   361.66119435575308      ;  -48031.968687846616      ;  -47670.307493490865      ;   9.8815223651281539      ;   3.0260434525005531E-031 ;  0.11727284843256419     
          30 ;   361.48726424871609      ;  -48031.621595621116      ;  -47670.134331372399      ;   9.8767701432434976      ;   1.4511901945051900E-031 ;  0.11721705549284796     
          31 ;   361.31173571513386      ;  -48031.267210766753      ;  -47669.955475051618      ;   9.8719742481976116      ;   2.0639212397750549E-031 ;  0.11716092766526350     
          32 ;   361.13461457641671      ;  -48030.918344100777      ;  -47669.783729524359      ;   9.8671348390464875      ;   1.2826217891361117E-031 ;  0.11709974463459719     
          33 ;   360.95590702201434      ;  -48030.553504843389      ;  -47669.597597821376      ;   9.8622520849019750      ;   5.7621763270281982E-032 ;  0.11703794531367276     
          34 ;   360.77561939982394      ;  -48030.191649624932      ;  -47669.416030225111      ;   9.8573261592051296      ;   2.4025599588443285E-031 ;  0.11697980494579707     
          35 ;   360.59375882436814      ;  -48029.830744002189      ;  -47669.236985177820      ;   9.8523572563431436      ;   5.6638429409376120E-031 ;  0.11692378055598372     
          36 ;   360.41033281985619      ;  -48029.461075642801      ;  -47669.050742822947      ;   9.8473455818969597      ;   6.0326895673684899E-031 ;  0.11685975396629852     
          37 ;   360.22534887892658      ;  -48029.094691336344      ;  -47668.869342457416      ;   9.8422913405848682      ;   5.0702206079966261E-031 ;  0.11680043871155667     
          38 ;   360.03881507760377      ;  -48028.721366927413      ;  -47668.682551849808      ;   9.8371947530648871      ;   1.8140628715715334E-031 ;  0.11674060606353699     
          39 ;   359.85073997370591      ;  -48028.342912282540      ;  -47668.492172308834      ;   9.8320560531587446      ;   1.9958155751401514E-031 ;  0.11667633032208563     
          40 ;   359.66113294792922      ;  -48027.969841482758      ;  -47668.308708534831      ;   9.8268754971714198      ;   4.1899385294511385E-031 ;  0.11661303121187504     
          41 ;   359.47000348860308      ;  -48027.583742003102      ;  -47668.113738514498      ;   9.8216533443487162      ;   3.7559074963222655E-031 ;  0.11655177769259840     
          42 ;   359.27736177352665      ;  -48027.201785881720      ;  -47667.924424108191      ;   9.8163898727745078      ;   4.2923780563045006E-031 ;  0.11649066232560906     
          43 ;   359.08321833454488      ;  -48026.810938420051      ;  -47667.727720085502      ;   9.8110853702061416      ;   1.0040996919694688E-031 ;  0.11642843999521985     
          44 ;   358.88758398438978      ;  -48026.422229036485      ;  -47667.534645052096      ;   9.8057401320755329      ;   7.6785690874658620E-032 ;  0.11636572152115571     
          45 ;   358.69046996219208      ;  -48026.025696227109      ;  -47667.335226264913      ;   9.8003544654648174      ;   5.8036016535171940E-031 ;  0.11630192821784278     
          46 ;   358.49188727945790      ;  -48025.628017974275      ;  -47667.136130694817      ;   9.7949286712369705      ;   2.5074610566519881E-031 ;  0.11623826064063023     
          47 ;   358.29184812186475      ;  -48025.225122915108      ;  -47666.933274793242      ;   9.7894630823363631      ;   5.4581290534003979E-032 ;  0.11617410900756563     
          48 ;   358.09036502616743      ;  -48024.825739680149      ;  -47666.735374653981      ;   9.7839580412995950      ;   7.8796590259150595E-031 ;  0.11610822317120383     
          49 ;   357.88745069342338      ;  -48024.426821869842      ;  -47666.539371176419      ;   9.7784138951525783      ;   7.8128003282674682E-031 ;  0.11604312457446746     
          50 ;   357.68311801569530      ;  -48024.013291576302      ;  -47666.330173560607      ;   9.7728309961398825      ;   9.2920624707926479E-031 ;  0.11597755153023709     
          51 ;   357.47738058545883      ;  -48023.599767430736      ;  -47666.122386845280      ;   9.7672097156432347      ;   3.8424237567046981E-031 ;  0.11591150889808892     
          52 ;   357.27025267006832      ;  -48023.188582471012      ;  -47665.918329800945      ;   9.7615504434837792      ;   8.4886485097531846E-031 ;  0.11584502791428421     
          53 ;   357.06174887501754      ;  -48022.771829762991      ;  -47665.710080887977      ;   9.7558535787215153      ;   8.4360117083650199E-031 ;  0.11578124893343324     
          54 ;   356.85188402092683      ;  -48022.353890342507      ;  -47665.502006321578      ;   9.7501195262942133      ;   1.9259748563338128E-031 ;  0.11571389542782125     
          55 ;   356.64067305304525      ;  -48021.929675348947      ;  -47665.289002295904      ;   9.7443486945448914      ;   1.1178678610649807E-030 ;  0.11564608986919463     
          56 ;   356.42813171832563      ;  -48021.507918429663      ;  -47665.079786711336      ;   9.7385415137211897      ;   3.9198856365632604E-031 ;  0.11557783998728249     
          57 ;   356.21427607147155      ;  -48021.078925646550      ;  -47664.864649575080      ;   9.7326984224792081      ;   6.8651873161655297E-032 ;  0.11551094243225896     
          58 ;   355.99912226453932      ;  -48020.647592522233      ;  -47664.648470257693      ;   9.7268198621351303      ;   2.0774282435201461E-030 ;  0.11544125276510499     
          59 ;   355.78268755511959      ;  -48020.221377181173      ;  -47664.438689626055      ;   9.7209063042110202      ;   1.1084775655995074E-030 ;  0.11537177158950318     
          60 ;   355.56498949660966      ;  -48019.784187769648      ;  -47664.219198273036      ;   9.7149582283113087      ;   5.1131247263736478E-031 ;  0.11530186648768419     
          61 ;   355.34604490771608      ;  -48019.345016647465      ;  -47663.998971739748      ;   9.7089760939666618      ;   1.6844621845559692E-033 ;  0.11523168203303819     
          62 ;   355.12587156962189      ;  -48018.900827825011      ;  -47663.774956255387      ;   9.7029603870051755      ;   1.7979837342271895E-032 ;  0.11515523896033134     
          63 ;   354.90448779708402      ;  -48018.455498937998      ;  -47663.551011140917      ;   9.6969116078335542      ;   1.8081972392546256E-031 ;  0.11508414282183858     
          64 ;   354.68191188718964      ;  -48018.010089150062      ;  -47663.328177262876      ;   9.6908302563756497      ;   2.1219388886450167E-031 ;  0.11500799152887170     
          65 ;   354.45816301094101      ;  -48017.565661391796      ;  -47663.107498380858      ;   9.6847168564330222      ;   1.3394776716232965E-031 ;  0.11493869678508294     
          66 ;   354.23326013084863      ;  -48017.117901308462      ;  -47662.884641177610      ;   9.6785719261106831      ;   5.5602284383054203E-031 ;  0.11486653955634019     
          67 ;   354.00722211193761      ;  -48016.672478808890      ;  -47662.665256696950      ;   9.6723959808500322      ;   2.0200231143451175E-031 ;  0.11479387533795375     
          68 ;   353.78006940952349      ;  -48016.219707053606      ;  -47662.439637644085      ;   9.6661895795434276      ;   5.6037481145384670E-031 ;  0.11471559516906486     
          69 ;   353.55182198789555      ;  -48015.761930166380      ;  -47662.210108178486      ;   9.6599532676669977      ;   1.6569892826469391E-031 ;  0.11464147314917311     
          70 ;   353.32249994498829      ;  -48015.301747855934      ;  -47661.979247910946      ;   9.6536875943485043      ;   3.5131445552080964E-031 ;  0.11456579946494327     
          71 ;   353.09212476980360      ;  -48014.834595903063      ;  -47661.742471133257      ;   9.6473931467232692      ;   9.9277303113672740E-031 ;  0.11449198262311966     
          72 ;   352.86071765330155      ;  -48014.375107114669      ;  -47661.514389461365      ;   9.6410705037832471      ;   3.3431818980857254E-031 ;  0.11441692890536498     
          73 ;   352.62829983117570      ;  -48013.905149241633      ;  -47661.276849410460      ;   9.6347202457427912      ;   3.2161207174611657E-031 ;  0.11434243855848707     
          74 ;   352.39489285583994      ;  -48013.439357573588      ;  -47661.044464717750      ;   9.6283429614696878      ;   7.3230619696381349E-031 ;  0.11426647397889308     
          75 ;   352.16051843262596      ;  -48012.970606670591      ;  -47660.810088237966      ;   9.6219392440099725      ;   1.4805777983719630E-031 ;  0.11419671070644874     
          76 ;   351.92519851738388      ;  -48012.492541034037      ;  -47660.567342516653      ;   9.6155096932543760      ;   2.7456125976043903E-031 ;  0.11412247667309215     
          77 ;   351.68895543677849      ;  -48012.020820251935      ;  -47660.331864815154      ;   9.6090549192253967      ;   9.8448730536912559E-031 ;  0.11404681973868439     
          78 ;   351.45181183727465      ;  -48011.545250475610      ;  -47660.093438638338      ;   9.6025755406832971      ;   1.7233406073921713E-030 ;  0.11397085806775116     
          79 ;   351.21379038370532      ;  -48011.069461044666      ;  -47659.855670660960      ;   9.5960721768899742      ;   3.6318891000782926E-031 ;  0.11389459808302635     
          80 ;   350.97491394783958      ;  -48010.594009867469      ;  -47659.619095919632      ;   9.5895454527615698      ;   8.0828320861216638E-031 ;  0.11381804597047540     
          81 ;   350.73520578748457      ;  -48010.113822990388      ;  -47659.378617202907      ;   9.5829960037616715      ;   6.9868194350127012E-032 ;  0.11374186745564213     
          82 ;   350.49468935459089      ;  -48009.637651371057      ;  -47659.142962016464      ;   9.5764244706585906      ;   5.0566122881838155E-031 ;  0.11366478441127191     
          83 ;   350.25338821370553      ;  -48009.155558603336      ;  -47658.902170389629      ;   9.5698314972967928      ;   2.6524176665780476E-031 ;  0.11358536755935908     
          84 ;   350.01132630962672      ;  -48008.673480103986      ;  -47658.662153794357      ;   9.5632177379102554      ;   1.0699610802151310E-031 ;  0.11350669552877864     
          85 ;   349.76852808754268      ;  -48008.192744594613      ;  -47658.424216507068      ;   9.5565838604050874      ;   1.3788839419257383E-031 ;  0.11342899729902244     
          86 ;   349.52501797126172      ;  -48007.699321639942      ;  -47658.174303668682      ;   9.5499305321029908      ;   1.7764529470382086E-030 ;  0.11334733665169915     
          87 ;   349.28082021904515      ;  -48007.208875927310      ;  -47657.928055708267      ;   9.5432584158027467      ;   7.7325506053721233E-031 ;  0.11326736441049949     
          88 ;   349.03595932242820      ;  -48006.717615545014      ;  -47657.681656222587      ;   9.5365681806765252      ;   3.1731743290167775E-031 ;  0.11318896133905298     
          89 ;   348.79046045739710      ;  -48006.227894637908      ;  -47657.437434180509      ;   9.5298605145976634      ;   3.6314901763175214E-031 ;  0.11311390433163715     
          90 ;   348.54434908445035      ;  -48005.737204476798      ;  -47657.192855392350      ;   9.5231361132130683      ;   5.1923203394640400E-031 ;  0.11303507915583104     
          91 ;   348.29765026555395      ;  -48005.242268204252      ;  -47656.944617938701      ;   9.5163956612806526      ;   2.6892082122742644E-030 ;  0.11295604952982592     
          92 ;   348.05038863549925      ;  -48004.746462335781      ;  -47656.696073700281      ;   9.5096398318868793      ;   1.1204447500468123E-031 ;  0.11287682462060297     
          93 ;   347.80258964380039      ;  -48004.251374278334      ;  -47656.448784634536      ;   9.5028693203784602      ;   4.0423975011874977E-031 ;  0.11279741219862702     
          94 ;   347.55427945706265      ;  -48003.752191113803      ;  -47656.197911656738      ;   9.4960848416950352      ;   4.9529158872961017E-032 ;  0.11271377703401164     
          95 ;   347.30548399276569      ;  -48003.257157412925      ;  -47655.951673420161      ;   9.4892871039693034      ;   5.6446311953195266E-031 ;  0.11263407245219495     
          96 ;   347.05622910240703      ;  -48002.761716685432      ;  -47655.705487583029      ;   9.4824768135313828      ;   7.5460762031847039E-031 ;  0.11255420636574978     
          97 ;   346.80654083761254      ;  -48002.260801410477      ;  -47655.454260572864      ;   9.4756546821792060      ;   3.2604171061820721E-031 ;  0.11247473721166545     
          98 ;   346.55644615169939      ;  -48001.761633182759      ;  -47655.205187031061      ;   9.4688214463473912      ;   3.5754664857816151E-032 ;  0.11239460228292150     
          99 ;   346.30597145211914      ;  -48001.262472953371      ;  -47654.956501501249      ;   9.4619778275559856      ;   4.1026112121511114E-031 ;  0.11231433197697842     
         100 ;   346.05514306406417      ;  -48000.756973704942      ;  -47654.701830640879      ;   9.4551245450776751      ;   4.3596290730148378E-031 ;  0.11223467793819165     
         101 ;   345.80398826739730      ;  -48000.250565331276      ;  -47654.446577063878      ;   9.4482623442689775      ;   9.7329207802710172E-032 ;  0.11215424429045762     
         102 ;   345.55253373659434      ;  -47999.751749378964      ;  -47654.199215642366      ;   9.4413919539458924      ;   3.6333764780737527E-033 ;  0.11207372875769930     
         103 ;   345.30080604142995      ;  -47999.242403003431      ;  -47653.941596962002      ;   9.4345141000635415      ;   4.7465824790840479E-031 ;  0.11199375081023742     
         104 ;   345.04883280164984      ;  -47998.739733631053      ;  -47653.690900829402      ;   9.4276295372651209      ;   1.8981083144224320E-031 ;  0.11191091277305025     
         105 ;   344.79664146635440      ;  -47998.234067904639      ;  -47653.437426438286      ;   9.4207390155312272      ;   7.9430317639445170E-031 ;  0.11183011591970626     
         106 ;   344.54425882716737      ;  -47997.727251571268      ;  -47653.182992744099      ;   9.4138432668785850      ;   8.1783307358194814E-031 ;  0.11174924458805677     
         107 ;   344.29171255285934      ;  -47997.218572034122      ;  -47652.926859481260      ;   9.4069430472897757      ;   3.3941701668465946E-031 ;  0.11166830611585515     
         108 ;   344.03903070106691      ;  -47996.710133536333      ;  -47652.671102835266      ;   9.4000391233722365      ;   8.6939225244018649E-032 ;  0.11158730963527795     
         109 ;   343.78624054892447      ;  -47996.208390105821      ;  -47652.422149556900      ;   9.3931322404081357      ;   2.1888207027356988E-031 ;  0.11150730356549877     
