 Step; Kinetic energy; Potential energy; Total energy; Calculated temperature; Mean momentum squared; Pressure; 
           1 ;   365.84336676067323      ;  -48071.566758427041      ;  -47705.723391666368      ;   9.9957901682516397      ;   5.4472326225970715E-031 ;  0.11862541629396407     
           2 ;   365.68605045969036      ;  -48071.247773331619      ;  -47705.561722871927      ;   9.9914918786623250      ;   1.2782494790428870E-031 ;  0.11857442411539011     
           3 ;   365.52550763311046      ;  -48070.929502628307      ;  -47705.403994995198      ;   9.9871054320206571      ;   6.7965750711920301E-031 ;  0.11852237230761517     
           4 ;   365.36174987044899      ;  -48070.603266413353      ;  -47705.241516542905      ;   9.9826311449822356      ;   1.1016768401360759E-031 ;  0.11846926540925853     
           5 ;   365.19478950925486      ;  -48070.269344869856      ;  -47705.074555360603      ;   9.9780693546409331      ;   3.2313802117804810E-031 ;  0.11841613591005466     
           6 ;   365.02463979249114      ;  -48069.935443958355      ;  -47704.910804165862      ;   9.9734204228288856      ;   6.2062233847135295E-032 ;  0.11836032928723723     
           7 ;   364.85131439520853      ;  -48069.594679387737      ;  -47704.743364992530      ;   9.9686847231839444      ;   8.7759264550929213E-032 ;  0.11830272358125778     
           8 ;   364.67482779424705      ;  -48069.244264908186      ;  -47704.569437113940      ;   9.9638626512510005      ;   3.8839851399730298E-032 ;  0.11824554613866495     
           9 ;   364.49519549757161      ;  -48068.887047111697      ;  -47704.391851614128      ;   9.9589546307478809      ;   2.5289071716122754E-031 ;  0.11818733372048568     
          10 ;   364.31243356329009      ;  -48068.515377525742      ;  -47704.202943962453      ;   9.9539611004236583      ;   6.0193896869534944E-032 ;  0.11812809299617275     
          11 ;   364.12655866605820      ;  -48068.147209764778      ;  -47704.020651098719      ;   9.9488825158732794      ;   1.9436146838217052E-031 ;  0.11807144688587873     
          12 ;   363.93758827371050      ;  -48067.777714851007      ;  -47703.840126577299      ;   9.9437193543634024      ;   2.1308869335306678E-031 ;  0.11801078078505838     
          13 ;   363.74554059467960      ;  -48067.395153408695      ;  -47703.649612814013      ;   9.9384721133955107      ;   5.2628558725027158E-031 ;  0.11794857378092727     
          14 ;   363.55043467661051      ;  -48067.006219000934      ;  -47703.455784324324      ;   9.9331413134007605      ;   1.3747282659277670E-031 ;  0.11788536262695201     
          15 ;   363.35229058016932      ;  -48066.610696509422      ;  -47703.258405929249      ;   9.9277275024886187      ;   3.1919078944977787E-031 ;  0.11782328723697882     
          16 ;   363.15112863929522      ;  -48066.210162212017      ;  -47703.059033572725      ;   9.9222312362350582      ;   4.0085286097100706E-031 ;  0.11775810804634533     
          17 ;   362.94696966194061      ;  -48065.802353971056      ;  -47702.855384309114      ;   9.9166530831673594      ;   4.5070882030229552E-031 ;  0.11769194381936822     
          18 ;   362.73983501329315      ;  -48065.382450006626      ;  -47702.642614993332      ;   9.9109936270378558      ;   4.9512515033935446E-032 ;  0.11762070845122680     
          19 ;   362.52974710221201      ;  -48064.963551875495      ;  -47702.433804773282      ;   9.9052534801147338      ;   2.5298846669201264E-031 ;  0.11755268228075454     
          20 ;   362.31672877399421      ;  -48064.540328529285      ;  -47702.223599755293      ;   9.8994332665907976      ;   1.8107445391893007E-030 ;  0.11748778592172708     
          21 ;   362.10080332414680      ;  -48064.109498457656      ;  -47702.008695133511      ;   9.8935336229597990      ;   6.1903879607263455E-031 ;  0.11741707877385554     
          22 ;   361.88199483480980      ;  -48063.671622603302      ;  -47701.789627768492      ;   9.8875552072082247      ;   4.6083461493994633E-031 ;  0.11734623508856373     
          23 ;   361.66032887157792      ;  -48063.225983633034      ;  -47701.565654761456      ;   9.8814987178545319      ;   1.3479501782510741E-031 ;  0.11727445132776737     
          24 ;   361.43583175384475      ;  -48062.777498790019      ;  -47701.341667036177      ;   9.8753648740128082      ;   5.6552224890740512E-031 ;  0.11720173449848555     
          25 ;   361.20852914057389      ;  -48062.318539014683      ;  -47701.110009874108      ;   9.8691543767525722      ;   4.0123725439612138E-031 ;  0.11712809377127435     
          26 ;   360.97844805764930      ;  -48061.852998296679      ;  -47700.874550239030      ;   9.8628679644910378      ;   8.4106575935827372E-031 ;  0.11705442856164240     
          27 ;   360.74561607548321      ;  -48061.388099301839      ;  -47700.642483226358      ;   9.8565063905234744      ;   3.1188176642626385E-031 ;  0.11697898597998158     
          28 ;   360.51006046893224      ;  -48060.923640971610      ;  -47700.413580502682      ;   9.8500704000697095      ;   1.1066013029842759E-031 ;  0.11690344750213494     
          29 ;   360.27181000090502      ;  -48060.447392295537      ;  -47700.175582294629      ;   9.8435607790070989      ;   4.4283443512775429E-032 ;  0.11682880183445597     
          30 ;   360.03089407584031      ;  -48059.964789246689      ;  -47699.933895170849      ;   9.8369783307411858      ;   1.7802699341214057E-031 ;  0.11675408716929128     
          31 ;   359.78734227633038      ;  -48059.472818702998      ;  -47699.685476426668      ;   9.8303238635451358      ;   9.3016604179640591E-032 ;  0.11667518677584436     
          32 ;   359.54118531359950      ;  -48058.982549258923      ;  -47699.441363945320      ;   9.8235982165292928      ;   8.2310652867384307E-032 ;  0.11659357474370351     
          33 ;   359.29245458766934      ;  -48058.488412288563      ;  -47699.195957700897      ;   9.8168022476237802      ;   2.7902180861929145E-031 ;  0.11651297736842828     
          34 ;   359.04118175105566      ;  -48057.988678956935      ;  -47698.947497205882      ;   9.8099368216574394      ;   3.9203506073042920E-031 ;  0.11643154317593789     
          35 ;   358.78739839227501      ;  -48057.479317307487      ;  -47698.691918915210      ;   9.8030028017105337      ;   4.4643875093451353E-031 ;  0.11634927989743174     
          36 ;   358.53113739474679      ;  -48056.973447376789      ;  -47698.442309982041      ;   9.7960010862434057      ;   1.0924196953828072E-031 ;  0.11626430060834377     
          37 ;   358.27243236883891      ;  -48056.452705999691      ;  -47698.180273630853      ;   9.7889325935784921      ;   9.7880832181843307E-031 ;  0.11618041438831229     
          38 ;   358.01131622865773      ;  -48055.933797907368      ;  -47697.922481678710      ;   9.7817982230146328      ;   4.8852177325294037E-031 ;  0.11609573270679532     
          39 ;   357.74782276183203      ;  -48055.397591487636      ;  -47697.649768725802      ;   9.7745988977175724      ;   7.2708267338899535E-031 ;  0.11601216393401891     
          40 ;   357.48198726058138      ;  -48054.868732677496      ;  -47697.386745416916      ;   9.7673355819622287      ;   1.1025882884636664E-031 ;  0.11592635136913435     
          41 ;   357.21384517285031      ;  -48054.333980959746      ;  -47697.120135786892      ;   9.7600092442785140      ;   5.8305560866311810E-031 ;  0.11583910854745708     
          42 ;   356.94343136247085      ;  -48053.792381603111      ;  -47696.848950240637      ;   9.7526208372367797      ;   2.1264538602156035E-031 ;  0.11575123900616159     
          43 ;   356.67078163806315      ;  -48053.246566435388      ;  -47696.575784797322      ;   9.7451713392214305      ;   3.2000237474321515E-031 ;  0.11566288413265791     
          44 ;   356.39593292755887      ;  -48052.700193186742      ;  -47696.304260259181      ;   9.7376617591993924      ;   4.7026216090228632E-031 ;  0.11557385057105206     
          45 ;   356.11892211897560      ;  -48052.152567305922      ;  -47696.033645186944      ;   9.7300931050470663      ;   1.6402289367481914E-030 ;  0.11548412276330099     
          46 ;   355.83978643267994      ;  -48051.591988410641      ;  -47695.752201977957      ;   9.7224663937214348      ;   3.4269215434180193E-031 ;  0.11539391811996236     
          47 ;   355.55856326306628      ;  -48051.027745810803      ;  -47695.469182547735      ;   9.7147826469344114      ;   1.8797604633061504E-031 ;  0.11530282707327703     
          48 ;   355.27529031649897      ;  -48050.464522958631      ;  -47695.189232642129      ;   9.7070428949216474      ;   9.7446797846365423E-031 ;  0.11521060914619498     
          49 ;   354.99000621859068      ;  -48049.893694512924      ;  -47694.903688294333      ;   9.6992481930352064      ;   1.5650579624469341E-030 ;  0.11511916284290111     
          50 ;   354.70275042062400      ;  -48049.317642418398      ;  -47694.614891997771      ;   9.6913996191864804      ;   1.2444122901159847E-031 ;  0.11502514258276134     
          51 ;   354.41356237048547      ;  -48048.735678289988      ;  -47694.322115919502      ;   9.6834982511941199      ;   5.6639776767773424E-031 ;  0.11493264393150104     
          52 ;   354.12248135400154      ;  -48048.153511922501      ;  -47694.031030568498      ;   9.6755451624487883      ;   4.9635335998427301E-031 ;  0.11483893979197195     
          53 ;   353.82954690842826      ;  -48047.562774840859      ;  -47693.733227932433      ;   9.6675414332109533      ;   1.5086451231033347E-032 ;  0.11474413320237098     
          54 ;   353.53479906893409      ;  -48046.967130493555      ;  -47693.432331424621      ;   9.6594881573453879      ;   6.1942900163201173E-031 ;  0.11465093969669193     
          55 ;   353.23827789332142      ;  -48046.370499565222      ;  -47693.132221671898      ;   9.6513864293350142      ;   1.0106033381156901E-031 ;  0.11455497995308310     
          56 ;   352.94002352878402      ;  -48045.774242304986      ;  -47692.834218776203      ;   9.6432373461055860      ;   1.6757651181953071E-031 ;  0.11445844281896919     
          57 ;   352.64007755440400      ;  -48045.171273969128      ;  -47692.531196414726      ;   9.6350420437053685      ;   2.3447232787002797E-031 ;  0.11436134465015145     
          58 ;   352.33848191144421      ;  -48044.565773818962      ;  -47692.227291907519      ;   9.6268016680785653      ;   4.0907386069795385E-031 ;  0.11426369527449312     
          59 ;   352.03527763530229      ;  -48043.955264403645      ;  -47691.919986768342      ;   9.6185173404186841      ;   7.5478092759467312E-031 ;  0.11416551121423119     
          60 ;   351.73050629164368      ;  -48043.343924944784      ;  -47691.613418653142      ;   9.6101901964076468      ;   3.4543627427765244E-031 ;  0.11406734550080602     
          61 ;   351.42421016648819      ;  -48042.735167789317      ;  -47691.310957622831      ;   9.6018213914091834      ;   7.9938245336438165E-032 ;  0.11396578033044207     
          62 ;   351.11643145642972      ;  -48042.124725010224      ;  -47691.008293553794      ;   9.5934120783437695      ;   8.5298142716097581E-031 ;  0.11386612836200259     
          63 ;   350.80721294473415      ;  -48041.511402949647      ;  -47690.704190004915      ;   9.5849634261612344      ;   6.9731080819106858E-032 ;  0.11376521211513574     
          64 ;   350.49659738786352      ;  -48040.886070588022      ;  -47690.389473200157      ;   9.5764766030790582      ;   1.4607713657436153E-030 ;  0.11366364759970732     
          65 ;   350.18462772598809      ;  -48040.262126959846      ;  -47690.077499233856      ;   9.5679527823341814      ;   3.7201991964445921E-031 ;  0.11356511442895949     
          66 ;   349.87134730752155      ;  -48039.635304815645      ;  -47689.763957508127      ;   9.5593931483177776      ;   3.1082977012467952E-031 ;  0.11346372048379118     
          67 ;   349.55679911382146      ;  -48039.008507728518      ;  -47689.451708614695      ;   9.5507988753919868      ;   2.6004888888182730E-031 ;  0.11336439040833150     
          68 ;   349.24102602719518      ;  -48038.376188681505      ;  -47689.135162654311      ;   9.5421711352127883      ;   7.3620613905421742E-031 ;  0.11326236956248809     
          69 ;   348.92407197585976      ;  -48037.745091658369      ;  -47688.821019682509      ;   9.5335111280130409      ;   1.2859003612362277E-031 ;  0.11315681929744949     
          70 ;   348.60598111287652      ;  -48037.109673221479      ;  -47688.503692108599      ;   9.5248200601689437      ;   2.3496768022197942E-031 ;  0.11305387306759054     
          71 ;   348.28679717505065      ;  -48036.469764094356      ;  -47688.182966919303      ;   9.5160991266836028      ;   4.2624924582065659E-031 ;  0.11294803141190203     
          72 ;   347.96656437171146      ;  -48035.827245518056      ;  -47687.860681146347      ;   9.5073495354705457      ;   4.8704628371392764E-032 ;  0.11284438224834778     
          73 ;   347.64532645236261      ;  -48035.186300535366      ;  -47687.540974083000      ;   9.4985724818797177      ;   4.1730489956590020E-031 ;  0.11274039542561495     
          74 ;   347.32312729660993      ;  -48034.541896784009      ;  -47687.218769487401      ;   9.4897691648158773      ;   5.1148710085317272E-031 ;  0.11263608368812919     
          75 ;   347.00001129613656      ;  -48033.896683766929      ;  -47686.896672470793      ;   9.4809407971750321      ;   7.5620093767026729E-031 ;  0.11253146092661519     
          76 ;   346.67602288373990      ;  -48033.253565315776      ;  -47686.577542432038      ;   9.4720885929764407      ;   8.6569362154561567E-032 ;  0.11242686588409141     
          77 ;   346.35120671930372      ;  -48032.599576280300      ;  -47686.248369560999      ;   9.4632137724441012      ;   7.4664261868701214E-031 ;  0.11232168076038580     
          78 ;   346.02560757275313      ;  -48031.951188603482      ;  -47685.925581030730      ;   9.4543175588084694      ;   2.9940760535848168E-031 ;  0.11221926451242295     
          79 ;   345.69927014008556      ;  -48031.299532518620      ;  -47685.600262378532      ;   9.4454011732801941      ;   9.7492845801002835E-031 ;  0.11211807831135649     
          80 ;   345.37223909841850      ;  -48030.641881523727      ;  -47685.269642425308      ;   9.4364658365541008      ;   1.3217015231681471E-030 ;  0.11200889403157742     
          81 ;   345.04455918857968      ;  -48029.989588044627      ;  -47684.945028856047      ;   9.4275127710657358      ;   1.9353138993426041E-031 ;  0.11190153971329178     
          82 ;   344.71627502034301      ;  -48029.330198440686      ;  -47684.613923420344      ;   9.4185431956698356      ;   8.9206459563598452E-031 ;  0.11179532430603564     
          83 ;   344.38743136243448      ;  -48028.672505959723      ;  -47684.285074597290      ;   9.4095583335641599      ;   2.3760638917733466E-031 ;  0.11169147665734182     
          84 ;   344.05807293413642      ;  -48028.012248536572      ;  -47683.954175602434      ;   9.4005594065955638      ;   1.3752355067361651E-031 ;  0.11158489725264441     
          85 ;   343.72824436873685      ;  -48027.353354287887      ;  -47683.625109919150      ;   9.3915476342613609      ;   5.4111604038581643E-031 ;  0.11147815141307436     
          86 ;   343.39799082217758      ;  -48026.694377827895      ;  -47683.296387005714      ;   9.3825242503390136      ;   2.6014373234548093E-031 ;  0.11137424591293839     
          87 ;   343.06735762459266      ;  -48026.035922471798      ;  -47682.968564847208      ;   9.3734904933654555      ;   5.4381736187845829E-031 ;  0.11126419574246005     
          88 ;   342.73638907208641      ;  -48025.370140740626      ;  -47682.633751668538      ;   9.3644475736251245      ;   4.9021680295433794E-031 ;  0.11115911647383837     
          89 ;   342.40512959910234      ;  -48024.711968636067      ;  -47682.306839036966      ;   9.3553967051823985      ;   1.6680006351959186E-031 ;  0.11105183775762360     
          90 ;   342.07362443471442      ;  -48024.045625285544      ;  -47681.972000850830      ;   9.3463391238129283      ;   1.0842800655355410E-031 ;  0.11094434400422948     
          91 ;   341.74191851763442      ;  -48023.382464057169      ;  -47681.640545539536      ;   9.3372760573589879      ;   1.5713606936792039E-031 ;  0.11083600618684729     
          92 ;   341.41005685688719      ;  -48022.722831546605      ;  -47681.312774689715      ;   9.3282087355838321      ;   8.8603899753288672E-031 ;  0.11072859834049709     
          93 ;   341.07808401682485      ;  -48022.055552883459      ;  -47680.977468866637      ;   9.3191383761013160      ;   1.6677575823085611E-031 ;  0.11061446827913186     
          94 ;   340.74604418185567      ;  -48021.386092206441      ;  -47680.640048024587      ;   9.3100661861440326      ;   4.3282461898744040E-031 ;  0.11050705617734956     
          95 ;   340.41398165285250      ;  -48020.717610502215      ;  -47680.303628849360      ;   9.3009933761268808      ;   4.1643862737280751E-031 ;  0.11039987790495773     
          96 ;   340.08194083112488      ;  -48020.051731575208      ;  -47679.969790744086      ;   9.2919211592088296      ;   6.1616865849844760E-031 ;  0.11028779293846631     
          97 ;   339.74996640696622      ;  -48019.384194437225      ;  -47679.634228030256      ;   9.2828507564446561      ;   1.4253466715991790E-031 ;  0.11018045899339778     
          98 ;   339.41810294334522      ;  -48018.721742587484      ;  -47679.303639644138      ;   9.2737833854103506      ;   4.5128474997016448E-031 ;  0.11007474028272274     
          99 ;   339.08639523453053      ;  -48018.059090046831      ;  -47678.972694812299      ;   9.2647202700015203      ;   2.1628246113052867E-031 ;  0.10996749706751256     
         100 ;   338.75488750445288      ;  -48017.393765836350      ;  -47678.638878331898      ;   9.2556626185307902      ;   8.9404362735250100E-032 ;  0.10986116397786963     
         101 ;   338.42362353353383      ;  -48016.723809497438      ;  -47678.300185963904      ;   9.2466116271927952      ;   2.2984454805715673E-031 ;  0.10975627560761851     
         102 ;   338.09264778369902      ;  -48016.062109174381      ;  -47677.969461390683      ;   9.2375685108027881      ;   6.6736246546188645E-032 ;  0.10965039398518728     
         103 ;   337.76200465550914      ;  -48015.397746462411      ;  -47677.635741806902      ;   9.2285344824992759      ;   2.5909120766805451E-031 ;  0.10954348852252013     
         104 ;   337.43173776775063      ;  -48014.732344425320      ;  -47677.300606657569      ;   9.2195107340607567      ;   1.3747705359951335E-031 ;  0.10944121234632508     
         105 ;   337.10189072850596      ;  -48014.076741726603      ;  -47676.974850998100      ;   9.2104984569731432      ;   5.0488425214260066E-031 ;  0.10933530005518761     
         106 ;   336.77250726937172      ;  -48013.416177531464      ;  -47676.643670262092      ;   9.2014988460971932      ;   2.8781688869865984E-032 ;  0.10922877997781420     
         107 ;   336.44363094895868      ;  -48012.759187869124      ;  -47676.315556920163      ;   9.1925130915671556      ;   3.9761048261607371E-031 ;  0.10912359361768814     
         108 ;   336.11530549330564      ;  -48012.105347917954      ;  -47675.990042424644      ;   9.1835423880918974      ;   4.7543390364458047E-031 ;  0.10901743574149859     
         109 ;   335.78757423645879      ;  -48011.448856533490      ;  -47675.661282297035      ;   9.1745879196699622      ;   4.9867821368943187E-031 ;  0.10891145849913318     
