 Step; Kinetic energy; Potential energy; Total energy; Calculated temperature; Mean momentum squared; Pressure; 
           1 ;   365.92887941101230      ;  -48063.007848832953      ;  -47697.078969421942      ;   9.9981265957700618      ;   4.1960632310481170E-031 ;  0.11870101761893276     
           2 ;   365.85750708125124      ;  -48062.860755522561      ;  -47697.003248441310      ;   9.9961765185049405      ;   2.4701611896674946E-031 ;  0.11867799777659117     
           3 ;   365.78330642377659      ;  -48062.718245447060      ;  -47696.934939023282      ;   9.9941491639870144      ;   2.2796023183826970E-031 ;  0.11865413507092448     
           4 ;   365.70625651852561      ;  -48062.565429095441      ;  -47696.859172576915      ;   9.9920439606257876      ;   2.6342633743932909E-031 ;  0.11862924141803879     
           5 ;   365.62633554817660      ;  -48062.405078251395      ;  -47696.778742703216      ;   9.9898603123154874      ;   4.3205990228237028E-032 ;  0.11860340226272645     
           6 ;   365.54352275653224      ;  -48062.234336029389      ;  -47696.690813272857      ;   9.9875976519430161      ;   1.5672758530675615E-031 ;  0.11857661231177004     
           7 ;   365.45779852001453      ;  -48062.059050644282      ;  -47696.601252124266      ;   9.9852554433411349      ;   4.4302948837220765E-031 ;  0.11854570003246732     
           8 ;   365.36914340317912      ;  -48061.883791293709      ;  -47696.514647890530      ;   9.9828331554831369      ;   1.6078853342328933E-031 ;  0.11851705802341594     
           9 ;   365.27753908792897      ;  -48061.698793191987      ;  -47696.421254104054      ;   9.9803302878710731      ;   3.4430129820124370E-032 ;  0.11848809251034799     
          10 ;   365.18296792005867      ;  -48061.505046134305      ;  -47696.322078214245      ;   9.9777463581462609      ;   4.4219359779003469E-031 ;  0.11845754056665748     
          11 ;   365.08541199320683      ;  -48061.303792718820      ;  -47696.218380725615      ;   9.9750808770604316      ;   3.7750575705725325E-032 ;  0.11843134569377922     
          12 ;   364.98485440285981      ;  -48061.105495812022      ;  -47696.120641409165      ;   9.9723333827383929      ;   1.7242485965091711E-031 ;  0.11840043337943808     
          13 ;   364.88127954347885      ;  -48060.899884530430      ;  -47696.018604986952      ;   9.9695034487963152      ;   2.6415463749065822E-031 ;  0.11836697171784265     
          14 ;   364.77467268343412      ;  -48060.688208844120      ;  -47695.913536160682      ;   9.9665906727278326      ;   1.8588952728166140E-031 ;  0.11833470083647127     
          15 ;   364.66501958687832      ;  -48060.469160902452      ;  -47695.804141315573      ;   9.9635946655727459      ;   3.1777183612586789E-032 ;  0.11829925635031642     
          16 ;   364.55230649799591      ;  -48060.242456725318      ;  -47695.690150227325      ;   9.9605150514863521      ;   3.6512864377109088E-031 ;  0.11826280514997335     
          17 ;   364.43652104228869      ;  -48060.013703712728      ;  -47695.577182670437      ;   9.9573514923653583      ;   5.1149130309229170E-032 ;  0.11822534170570928     
          18 ;   364.31765147931566      ;  -48059.781854132234      ;  -47695.464202652918      ;   9.9541036674303331      ;   1.0480816970643368E-031 ;  0.11818922140062546     
          19 ;   364.19568625502086      ;  -48059.537157395025      ;  -47695.341471140004      ;   9.9507712609945340      ;   2.0123385894712067E-031 ;  0.11814974537396324     
          20 ;   364.07061495451603      ;  -48059.288808371391      ;  -47695.218193416877      ;   9.9473539884962889      ;   1.0130728759869815E-031 ;  0.11810924743763224     
          21 ;   363.94242772686084      ;  -48059.034483618743      ;  -47695.092055891881      ;   9.9438515807821570      ;   1.2263193803435074E-031 ;  0.11806580697547892     
          22 ;   363.81111584556618      ;  -48058.769813470230      ;  -47694.958697624665      ;   9.9402637994219667      ;   9.6678087775751325E-032 ;  0.11803085554523883     
          23 ;   363.67667187053405      ;  -48058.502718526383      ;  -47694.826046655849      ;   9.9365904411328305      ;   4.2365790906189298E-031 ;  0.11798714390914510     
          24 ;   363.53908883250392      ;  -48058.224737471886      ;  -47694.685648639381      ;   9.9328313154966033      ;   3.2224999063289591E-031 ;  0.11794262067222543     
          25 ;   363.39836043338198      ;  -48057.936882374095      ;  -47694.538521940711      ;   9.9289862504327893      ;   2.4564959043342102E-031 ;  0.11789854758161232     
          26 ;   363.25448138553412      ;  -48057.645797806777      ;  -47694.391316421243      ;   9.9250551014696970      ;   3.5039416102580040E-031 ;  0.11785195331690058     
          27 ;   363.10744725829045      ;  -48057.353522001024      ;  -47694.246074742732      ;   9.9210377475498834      ;   6.8328621077342341E-031 ;  0.11780359844144211     
          28 ;   362.95725472744112      ;  -48057.055697799937      ;  -47694.098443072493      ;   9.9169340978472658      ;   5.3117953639359134E-032 ;  0.11775492257341877     
          29 ;   362.80390179963797      ;  -48056.752576887302      ;  -47693.948675087668      ;   9.9127440978984147      ;   1.9149123586544944E-031 ;  0.11770360655016117     
          30 ;   362.64738665917719      ;  -48056.438011379214      ;  -47693.790624720037      ;   9.9084676980936681      ;   6.4114290820170036E-031 ;  0.11765362855077066     
          31 ;   362.48770863125401      ;  -48056.114559819660      ;  -47693.626851188405      ;   9.9041048799954794      ;   4.4546932986999947E-031 ;  0.11760076397525057     
          32 ;   362.32486825896876      ;  -48055.790159345575      ;  -47693.465291086606      ;   9.8996556584428408      ;   1.6204828875715466E-032 ;  0.11754810717470945     
          33 ;   362.15886643815440      ;  -48055.458156266104      ;  -47693.299289827948      ;   9.8951200579121874      ;   1.1847413243405961E-030 ;  0.11749436952078797     
          34 ;   361.98970492114859      ;  -48055.110361581137      ;  -47693.120656659987      ;   9.8904981262819973      ;   4.0249116044429747E-031 ;  0.11743907475784422     
          35 ;   361.81738678533571      ;  -48054.762909744779      ;  -47692.945522959446      ;   9.8857899476343061      ;   1.2234675130152348E-031 ;  0.11738338906513231     
          36 ;   361.64191683246111      ;  -48054.409666156687      ;  -47692.767749324223      ;   9.8809956531653729      ;   3.0486008491830807E-031 ;  0.11732203943550594     
          37 ;   361.46329993116888      ;  -48054.052176163066      ;  -47692.588876231894      ;   9.8761153758991149      ;   1.5222376329202452E-031 ;  0.11725852810342380     
          38 ;   361.28154112973584      ;  -48053.688658149811      ;  -47692.407117020077      ;   9.8711492537675269      ;   1.0013130088827770E-030 ;  0.11719982052625375     
          39 ;   361.09664716862460      ;  -48053.319381493071      ;  -47692.222734324445      ;   9.8660974709376159      ;   3.9970544329469180E-031 ;  0.11714008177422996     
          40 ;   360.90862568920426      ;  -48052.944618008238      ;  -47692.035992319034      ;   9.8609602361913158      ;   2.4212347837922606E-031 ;  0.11708016867775560     
          41 ;   360.71748586111642      ;  -48052.560801244770      ;  -47691.843315383652      ;   9.8557378000671694      ;   5.1807337177169945E-031 ;  0.11701862673562116     
          42 ;   360.52323770423692      ;  -48052.177167925598      ;  -47691.653930221364      ;   9.8504304363340598      ;   2.1884503442938896E-031 ;  0.11695513120990823     
          43 ;   360.32589164295109      ;  -48051.781451121773      ;  -47691.455559478825      ;   9.8450384298133109      ;   3.2271241856518766E-031 ;  0.11689287232255224     
          44 ;   360.12545996837252      ;  -48051.377515231681      ;  -47691.252055263307      ;   9.8395621163300717      ;   4.2055612821618845E-032 ;  0.11682809755715100     
          45 ;   359.92195565009615      ;  -48050.971529475573      ;  -47691.049573825476      ;   9.8340018502472208      ;   2.4506967421110298E-031 ;  0.11676175571679323     
          46 ;   359.71539231138394      ;  -48050.557121533719      ;  -47690.841729222331      ;   9.8283580037877520      ;   6.2045221073805930E-031 ;  0.11669498471692763     
          47 ;   359.50578458953527      ;  -48050.134576727680      ;  -47690.628792138144      ;   9.8226309768805642      ;   3.1475463772624315E-031 ;  0.11662979669213677     
          48 ;   359.29314772161149      ;  -48049.709301747134      ;  -47690.416154025523      ;   9.8168211858417926      ;   8.4952285433600127E-032 ;  0.11656055590225750     
          49 ;   359.07749838818251      ;  -48049.282097996896      ;  -47690.204599608711      ;   9.8109290864278709      ;   2.0163312532660233E-031 ;  0.11648935721402667     
          50 ;   358.85885487712949      ;  -48048.846089271465      ;  -47689.987234394335      ;   9.8049551783111859      ;   4.7129719964168881E-031 ;  0.11641866771336513     
          51 ;   358.63723634207895      ;  -48048.399778235078      ;  -47689.762541892997      ;   9.7988999848184744      ;   3.0061679347308532E-032 ;  0.11635038646900420     
          52 ;   358.41266216493705      ;  -48047.951139967707      ;  -47689.538477802773      ;   9.7927640355137378      ;   2.9826723097342070E-031 ;  0.11627968206876117     
          53 ;   358.18515276250582      ;  -48047.496630756999      ;  -47689.311477994495      ;   9.7865478882369619      ;   1.0641410203146028E-031 ;  0.11620619333519162     
          54 ;   357.95472969084460      ;  -48047.031942102534      ;  -47689.077212411692      ;   9.7802521319556792      ;   2.4471740335402865E-031 ;  0.11613803396744171     
          55 ;   357.72141551595195      ;  -48046.562495042919      ;  -47688.841079526966      ;   9.7738773832314916      ;   1.4525302154957847E-031 ;  0.11606420442914984     
          56 ;   357.48523389647971      ;  -48046.088593662578      ;  -47688.603359766101      ;   9.7674242884802442      ;   1.6148808755844430E-031 ;  0.11598788623045420     
          57 ;   357.24620946032530      ;  -48045.609006588151      ;  -47688.362797127826      ;   9.7608935205998506      ;   1.8672069137680954E-031 ;  0.11590830040160767     
          58 ;   357.00436793410421      ;  -48045.118921189947      ;  -47688.114553255844      ;   9.7542857825083065      ;   1.8350377413276643E-032 ;  0.11582750517146737     
          59 ;   356.75973564113792      ;  -48044.630933400629      ;  -47687.871197759494      ;   9.7476017934271049      ;   1.3774840039402388E-031 ;  0.11574576886881845     
          60 ;   356.51233995932341      ;  -48044.133322610040      ;  -47687.620982650718      ;   9.7408423013913659      ;   5.0128864731334722E-031 ;  0.11566806596922340     
          61 ;   356.26220927018585      ;  -48043.640993814603      ;  -47687.378784544417      ;   9.7340080818580201      ;   5.3572730673977779E-031 ;  0.11558639854290384     
          62 ;   356.00937279714600      ;  -48043.140948797707      ;  -47687.131576000560      ;   9.7270999332867394      ;   2.1453442150358378E-031 ;  0.11550474016853395     
          63 ;   355.75386123750422      ;  -48042.630178567910      ;  -47686.876317330403      ;   9.7201186944075637      ;   9.2754709585191743E-032 ;  0.11542087039772918     
          64 ;   355.49570540628781      ;  -48042.108743705059      ;  -47686.613038298769      ;   9.7130652071668120      ;   5.3442066836976838E-031 ;  0.11533960256090550     
          65 ;   355.23493720919566      ;  -48041.583875472410      ;  -47686.348938263218      ;   9.7059403433110774      ;   2.3886002794163747E-031 ;  0.11525540348765088     
          66 ;   354.97159003881552      ;  -48041.052569573716      ;  -47686.080979534898      ;   9.6987450152125341      ;   1.2640092547464373E-031 ;  0.11517035432611333     
          67 ;   354.70569749644892      ;  -48040.525388348658      ;  -47685.819690852208      ;   9.6914801409458526      ;   3.4385238416480262E-031 ;  0.11508081329970202     
          68 ;   354.43729476969054      ;  -48039.988067194194      ;  -47685.550772424504      ;   9.6841466819275883      ;   1.0571305358982682E-030 ;  0.11499452451466831     
          69 ;   354.16641791656667      ;  -48039.440677627194      ;  -47685.274259710626      ;   9.6767456233564282      ;   2.8800720978017601E-032 ;  0.11490705113141882     
          70 ;   353.89310314189913      ;  -48038.897883984610      ;  -47685.004780842712      ;   9.6692779544421459      ;   2.1011123356389326E-031 ;  0.11482055625854350     
          71 ;   353.61738816474940      ;  -48038.347729713161      ;  -47684.730341548413      ;   9.6617447057673331      ;   2.4242830815477233E-031 ;  0.11473213392247512     
          72 ;   353.33931186933069      ;  -48037.789269314351      ;  -47684.449957445024      ;   9.6541469397496513      ;   3.3504251791447698E-032 ;  0.11464280149907285     
          73 ;   353.05891299563905      ;  -48037.230003354023      ;  -47684.171090358381      ;   9.6464857148662819      ;   9.4650224347834653E-031 ;  0.11455310682260358     
          74 ;   352.77623126950107      ;  -48036.666683519019      ;  -47683.890452249521      ;   9.6387621165299429      ;   1.9572782205869871E-031 ;  0.11446324105019595     
          75 ;   352.49130726450790      ;  -48036.097086455309      ;  -47683.605779190802      ;   9.6309772533164129      ;   1.8697836793391450E-031 ;  0.11436694863227696     
          76 ;   352.20418243235667      ;  -48035.522319645796      ;  -47683.318137213442      ;   9.6231322577936353      ;   1.2548556655308112E-030 ;  0.11428004385869527     
          77 ;   351.91489973559260      ;  -48034.940932889454      ;  -47683.026033153859      ;   9.6152283038097863      ;   3.3947977060376328E-031 ;  0.11418664287630728     
          78 ;   351.62350246174236      ;  -48034.356085678912      ;  -47682.732583217170      ;   9.6072665740925078      ;   1.2166818060159240E-030 ;  0.11409254100788489     
          79 ;   351.33003444283651      ;  -48033.774520382278      ;  -47682.444485939443      ;   9.5992482662465939      ;   4.1096057995623891E-031 ;  0.11399775323795498     
          80 ;   351.03454047442949      ;  -48033.188903113842      ;  -47682.154362639412      ;   9.5911746042028785      ;   2.7261911966833020E-031 ;  0.11390229288609476     
          81 ;   350.73706566077198      ;  -48032.591132305271      ;  -47681.854066644497      ;   9.5830468203264054      ;   1.6215490122509944E-031 ;  0.11380748492814946     
          82 ;   350.43765608227528      ;  -48031.991539829905      ;  -47681.553883747627      ;   9.5748661736537155      ;   7.2588622253773334E-032 ;  0.11371074185130840     
          83 ;   350.13635885560825      ;  -48031.393035891539      ;  -47681.256677035934      ;   9.5666339515344401      ;   4.2338276147006532E-031 ;  0.11361329100700956     
          84 ;   349.83322132575347      ;  -48030.787267284788      ;  -47680.954045959035      ;   9.5583514475563707      ;   1.4348056827557085E-031 ;  0.11351706605806297     
          85 ;   349.52829145060889      ;  -48030.175354091582      ;  -47680.647062640972      ;   9.5500199720536774      ;   6.0295926244640895E-031 ;  0.11341851050858147     
          86 ;   349.22161834179980      ;  -48029.564562232721      ;  -47680.342943890922      ;   9.5416408668835029      ;   1.0034410797381867E-031 ;  0.11332212834663805     
          87 ;   348.91325150280215      ;  -48028.950894744994      ;  -47680.037643242191      ;   9.5332154846092418      ;   1.2969632304298102E-030 ;  0.11322239907696781     
          88 ;   348.60324114039088      ;  -48028.336500198435      ;  -47679.733259058041      ;   9.5247451970102617      ;   9.3632064616369717E-031 ;  0.11312212125809791     
          89 ;   348.29163833482301      ;  -48027.716104500360      ;  -47679.424466165539      ;   9.5162313997316978      ;   4.1801175086038988E-031 ;  0.11302131156857062     
          90 ;   347.97849363314629      ;  -48027.090320979441      ;  -47679.111827346293      ;   9.5076754738501759      ;   3.1046594311002777E-031 ;  0.11291998689150895     
          91 ;   347.66385859128144      ;  -48026.461556888753      ;  -47678.797698297472      ;   9.4990788280071534      ;   6.7494952253666245E-031 ;  0.11281816221972162     
          92 ;   347.34778585087196      ;  -48025.824796941459      ;  -47678.477011090588      ;   9.4904429005089703      ;   4.7936154005939469E-031 ;  0.11271585653399221     
          93 ;   347.03032803124245      ;  -48025.190130979012      ;  -47678.159802947768      ;   9.4817691290521235      ;   1.9201835371895385E-031 ;  0.11261308539481581     
          94 ;   346.71153857615707      ;  -48024.551265744572      ;  -47677.839727168415      ;   9.4730589738589046      ;   1.1395589215714037E-031 ;  0.11250720462752711     
          95 ;   346.39147170274964      ;  -48023.909333449701      ;  -47677.517861746950      ;   9.4643139162822294      ;   6.6109739752011017E-031 ;  0.11240359942939178     
          96 ;   346.07018206695705      ;  -48023.265979842450      ;  -47677.195797775494      ;   9.4555354496639250      ;   3.2498961524615247E-032 ;  0.11229958164265928     
          97 ;   345.74772471933625      ;  -48022.622850247455      ;  -47676.875125528117      ;   9.4467250781282264      ;   3.1733852252806208E-031 ;  0.11219768806780860     
          98 ;   345.42415481529474      ;  -48021.977496170250      ;  -47676.553341354957      ;   9.4378843086640121      ;   3.9383436622984888E-031 ;  0.11209679751490265     
          99 ;   345.09952837478210      ;  -48021.333612527342      ;  -47676.234084152558      ;   9.4290146718815659      ;   1.4543905422130603E-031 ;  0.11199285925534806     
         100 ;   344.77390174490426      ;  -48020.689520420259      ;  -47675.915618675353      ;   9.4201177073301068      ;   1.6537405968053909E-031 ;  0.11188748331517320     
           1 ;   344.44733135230649      ;  -48020.034581672378      ;  -47675.587250320074      ;   9.4111949567320234      ;   8.8953662269890812E-032 ;  0.11178078736856055     
           2 ;   344.11987407422419      ;  -48019.378636475056      ;  -47675.258762400830      ;   9.4022479741209395      ;   1.1416935909329350E-031 ;  0.11167491020862252     
           3 ;   343.79158712614208      ;  -48018.716423807346      ;  -47674.924836681203      ;   9.3932783227724030      ;   2.8012095008097281E-031 ;  0.11156874950341356     
           4 ;   343.46252794092214      ;  -48018.056250670692      ;  -47674.593722729769      ;   9.3842875719013392      ;   2.4003378494728367E-031 ;  0.11146270694580709     
           5 ;   343.13275474344812      ;  -48017.400281543232      ;  -47674.267526799784      ;   9.3752773123625293      ;   4.7240058462185186E-031 ;  0.11135807847517332     
           6 ;   342.80232575625405      ;  -48016.738648790822      ;  -47673.936323034570      ;   9.3662491349467523      ;   2.6375836799290585E-031 ;  0.11125124172415189     
           7 ;   342.47129932854176      ;  -48016.084013070285      ;  -47673.612713741742      ;   9.3572046339056278      ;   8.5223758130166792E-032 ;  0.11114586225251680     
           8 ;   342.13973478917347      ;  -48015.424460975977      ;  -47673.284726186801      ;   9.3481454302576257      ;   5.4771635041558468E-031 ;  0.11103780282060061     
           9 ;   341.80769080175304      ;  -48014.755758512198      ;  -47672.948067710444      ;   9.3390731268446299      ;   4.0398300073886084E-032 ;  0.11093045538292537     
