 Step; Kinetic energy; Potential energy; Total energy; Calculated temperature; Mean momentum squared; Pressure; 
           1 ;   182.97639654400211      ;  -48341.376619470087      ;  -48158.400222926088      ;   4.9993899897415330      ;   4.6119602401593005E-031 ;   5.9352723837128314E-002
           2 ;   182.95286843378429      ;  -48341.331102213939      ;  -48158.378233780153      ;   4.9987471407133528      ;   7.5837784613964326E-033 ;   5.9343959114390360E-002
           3 ;   182.92811849493822      ;  -48341.280068633256      ;  -48158.351950138320      ;   4.9980709081562962      ;   2.5597960233403628E-032 ;   5.9333355641581965E-002
           4 ;   182.90212760335226      ;  -48341.228345512201      ;  -48158.326217908849      ;   4.9973607695500339      ;   1.3051887213514146E-031 ;   5.9327260718725572E-002
           5 ;   182.87487647882836      ;  -48341.175637846478      ;  -48158.300761367653      ;   4.9966161981095327      ;   4.6140420409771023E-032 ;   5.9319521783330081E-002
           6 ;   182.84634636810486      ;  -48341.115252309530      ;  -48158.268905941426      ;   4.9958366814470025      ;   5.7969698762292680E-032 ;   5.9308231498722698E-002
           7 ;   182.81651878262795      ;  -48341.058671568273      ;  -48158.242152785642      ;   4.9950217144071631      ;   1.1122971945619150E-031 ;   5.9297120469029040E-002
           8 ;   182.78537523292613      ;  -48341.001251001435      ;  -48158.215875768510      ;   4.9941707918096920      ;   8.6840947337391484E-032 ;   5.9287005383100264E-002
           9 ;   182.75289781694113      ;  -48340.941418339367      ;  -48158.188520522424      ;   4.9932834245238817      ;   3.7202150477198544E-032 ;   5.9276614129413624E-002
          10 ;   182.71906819437265      ;  -48340.876321315322      ;  -48158.157253120946      ;   4.9923591114451495      ;   3.5561015111693265E-032 ;   5.9267511980066787E-002
          11 ;   182.68386882903707      ;  -48340.804644977092      ;  -48158.120776148055      ;   4.9913973734394439      ;   2.0804534594039841E-032 ;   5.9256212470180182E-002
          12 ;   182.64728303567267      ;  -48340.725587846595      ;  -48158.078304810922      ;   4.9903977546221050      ;   1.2589954633574355E-031 ;   5.9244301179885460E-002
          13 ;   182.60929399419803      ;  -48340.649867833374      ;  -48158.040573839178      ;   4.9893597954248747      ;   9.1982308468765963E-032 ;   5.9232117615747114E-002
          14 ;   182.56988527205527      ;  -48340.572844228845      ;  -48158.002958956793      ;   4.9882830468676316      ;   2.1580190330215549E-032 ;   5.9219467012611986E-002
          15 ;   182.52904117854436      ;  -48340.492182232629      ;  -48157.963141054082      ;   4.9871670802397077      ;   6.0931773733001826E-032 ;   5.9205927054711317E-002
          16 ;   182.48674608047409      ;  -48340.411689714718      ;  -48157.924943634243      ;   4.9860114684017898      ;   3.8926769225752712E-032 ;   5.9190813289615216E-002
          17 ;   182.44298479129810      ;  -48340.322888971918      ;  -48157.879904180620      ;   4.9848157964179851      ;   1.1892472103234610E-031 ;   5.9176251504293370E-002
          18 ;   182.39774265696477      ;  -48340.232919095739      ;  -48157.835176438777      ;   4.9835796639016010      ;   2.5686727374873329E-032 ;   5.9161737182389124E-002
          19 ;   182.35100476233083      ;  -48340.135861176954      ;  -48157.784856414626      ;   4.9823026633321845      ;   7.0337656285816466E-032 ;   5.9146730085609056E-002
          20 ;   182.30275677563441      ;  -48340.033479213300      ;  -48157.730722437664      ;   4.9809844031288435      ;   1.1007759593253268E-031 ;   5.9132785782215910E-002
          21 ;   182.25298505031219      ;  -48339.928561520079      ;  -48157.675576469766      ;   4.9796245104320409      ;   1.0340262391951651E-031 ;   5.9119555250350245E-002
          22 ;   182.20167616676633      ;  -48339.832345172792      ;  -48157.630669006023      ;   4.9782226185835166      ;   4.0986114070265537E-033 ;   5.9102932036780728E-002
          23 ;   182.14881739821607      ;  -48339.723301489823      ;  -48157.574484091609      ;   4.9767783798546752      ;   1.1404490594280196E-031 ;   5.9082704168872464E-002
          24 ;   182.09439639560793      ;  -48339.613693057196      ;  -48157.519296661587      ;   4.9752914568372049      ;   1.7861322640893004E-031 ;   5.9065273548212838E-002
          25 ;   182.03840147018829      ;  -48339.498376702220      ;  -48157.459975232036      ;   4.9737615301641167      ;   3.2948460760521055E-032 ;   5.9047326136881850E-002
          26 ;   181.98082126767918      ;  -48339.380914037763      ;  -48157.400092770084      ;   4.9721882896070326      ;   3.1214331246809423E-032 ;   5.9028856814688099E-002
          27 ;   181.92164427404714      ;  -48339.262049617180      ;  -48157.340405343130      ;   4.9705714205727016      ;   1.0917565837009948E-032 ;   5.9009644798406494E-002
          28 ;   181.86085983265795      ;  -48339.137154225216      ;  -48157.276294392555      ;   4.9689106318941967      ;   1.5103887633822039E-031 ;   5.8993357640310579E-002
          29 ;   181.79845785883305      ;  -48339.012351596655      ;  -48157.213893737819      ;   4.9672056480319409      ;   1.0578348546393595E-032 ;   5.8973349328203757E-002
          30 ;   181.73442847440475      ;  -48338.886597714431      ;  -48157.152169240027      ;   4.9654561990887531      ;   3.6957248274393749E-033 ;   5.8953207380148712E-002
          31 ;   181.66876252396659      ;  -48338.755522992666      ;  -48157.086760468701      ;   4.9636620349151936      ;   8.0531083031253657E-032 ;   5.8932134688963120E-002
          32 ;   181.60145115488791      ;  -48338.616549591796      ;  -48157.015098436910      ;   4.9618229136343928      ;   3.3114634962855705E-032 ;   5.8910520585792304E-002
          33 ;   181.53248595885037      ;  -48338.472988692120      ;  -48156.940502733269      ;   4.9599386055092927      ;   1.0964247842657853E-031 ;   5.8888362035323001E-002
          34 ;   181.46185927539011      ;  -48338.335064094681      ;  -48156.873204819291      ;   4.9580089012360986      ;   1.2109238292448563E-031 ;   5.8868149272596745E-002
          35 ;   181.38956372862845      ;  -48338.187402044234      ;  -48156.797838315608      ;   4.9560335992867461      ;   1.8396197505832153E-031 ;   5.8842602389508267E-002
          36 ;   181.31559242114542      ;  -48338.040740667711      ;  -48156.725148246565      ;   4.9540125112057547      ;   1.9431021592548860E-032 ;   5.8818888885805463E-002
          37 ;   181.23993888161635      ;  -48337.886106374717      ;  -48156.646167493098      ;   4.9519454601797532      ;   1.1932443735688078E-031 ;   5.8794893760798016E-002
          38 ;   181.16259683915746      ;  -48337.732703016969      ;  -48156.570106177809      ;   4.9498322748719392      ;   1.3927194633506436E-032 ;   5.8768425766132844E-002
          39 ;   181.08356081291109      ;  -48337.574887863593      ;  -48156.491327050680      ;   4.9476728055310266      ;   3.7149048705069349E-032 ;   5.8745401161527398E-002
          40 ;   181.00282629406513      ;  -48337.411371393522      ;  -48156.408545099453      ;   4.9454669289646125      ;   2.7774076139016475E-033 ;   5.8719528204023375E-002
          41 ;   180.92038885973705      ;  -48337.240865370462      ;  -48156.320476510722      ;   4.9432145243280301      ;   7.0432499749470113E-033 ;   5.8693097625565176E-002
          42 ;   180.83624464865966      ;  -48337.076417333810      ;  -48156.240172685153      ;   4.9409154861214644      ;   1.5291256312122181E-031 ;   5.8666105045417069E-002
          43 ;   180.75039069711775      ;  -48336.914181818269      ;  -48156.163791121151      ;   4.9385697333685075      ;   2.1223008260968425E-032 ;   5.8638550640880541E-002
          44 ;   180.66282407087346      ;  -48336.739816792957      ;  -48156.076992722083      ;   4.9361771858981864      ;   2.0387256377453965E-031 ;   5.8610433214882691E-002
          45 ;   180.57354243112724      ;  -48336.558693572559      ;  -48155.985151141431      ;   4.9337377798084114      ;   6.8027861292156989E-032 ;   5.8581657378862798E-002
          46 ;   180.48254383105112      ;  -48336.378488233633      ;  -48155.895944402582      ;   4.9312514619067720      ;   4.3673565697052804E-033 ;   5.8552488675707705E-002
          47 ;   180.38982683099636      ;  -48336.194334513821      ;  -48155.804507682828      ;   4.9287181928583754      ;   1.1579686814118386E-032 ;   5.8522755042765683E-002
          48 ;   180.29539111664195      ;  -48336.007510821364      ;  -48155.712119704724      ;   4.9261379640751333      ;   7.5791287539861153E-032 ;   5.8492457521205882E-002
          49 ;   180.19923672624185      ;  -48335.812386108424      ;  -48155.613149382181      ;   4.9235107766022423      ;   1.7431389822889275E-031 ;   5.8461593460636556E-002
          50 ;   180.10136410052448      ;  -48335.612801027564      ;  -48155.511436927038      ;   4.9208366424815226      ;   2.7199995786594876E-032 ;   5.8430164505451708E-002
          51 ;   180.00177374809874      ;  -48335.410804087158      ;  -48155.409030339062      ;   4.9181155756095460      ;   1.8985072381832035E-032 ;   5.8398171914601026E-002
          52 ;   179.90046693679079      ;  -48335.207166133987      ;  -48155.306699197194      ;   4.9153476106265659      ;   1.2477595510755714E-032 ;   5.8362080142989423E-002
          53 ;   179.79744605239438      ;  -48334.998308405025      ;  -48155.200862352634      ;   4.9125328127186636      ;   6.6412616342913701E-032 ;   5.8328992809944594E-002
          54 ;   179.69271342568592      ;  -48334.788842848335      ;  -48155.096129422651      ;   4.9096712455687284      ;   4.1235771655649069E-032 ;   5.8295342180745363E-002
          55 ;   179.58627201438122      ;  -48334.579799698404      ;  -48154.993527684026      ;   4.9067629899891871      ;   1.6518679997975639E-032 ;   5.8261130941275552E-002
          56 ;   179.47812544258767      ;  -48334.361457866675      ;  -48154.883332424084      ;   4.9038081450001183      ;   7.7278401347399665E-032 ;   5.8226359292663538E-002
          57 ;   179.36827795182433      ;  -48334.141506406530      ;  -48154.773228454702      ;   4.9008068264907729      ;   2.2743541840518595E-031 ;   5.8193453025678306E-002
          58 ;   179.25673434910954      ;  -48333.911250606849      ;  -48154.654516257739      ;   4.8977591658014044      ;   3.2387127475289672E-032 ;   5.8157568879447806E-002
          59 ;   179.14350002735193      ;  -48333.682221590818      ;  -48154.538721563469      ;   4.8946653102802298      ;   7.1240716646914091E-032 ;   5.8121583919079567E-002
          60 ;   179.02858072331532      ;  -48333.449310754397      ;  -48154.420730031081      ;   4.8915254166705466      ;   5.8673495383945300E-033 ;   5.8084592661649524E-002
          61 ;   178.91198252136647      ;  -48333.216369627065      ;  -48154.304387105702      ;   4.8883396512130810      ;   1.5855079568509374E-031 ;   5.8047049741944780E-002
          62 ;   178.79371241796895      ;  -48332.986228296453      ;  -48154.192515878487      ;   4.8851082050693240      ;   2.2687203766356650E-032 ;   5.8008957857777106E-002
          63 ;   178.67377807917524      ;  -48332.750966779429      ;  -48154.077188700256      ;   4.8818312876957357      ;   2.5630455347691645E-032 ;   5.7970317282126406E-002
          64 ;   178.55218737689873      ;  -48332.510088546223      ;  -48153.957901169328      ;   4.8785091141734211      ;   3.5861528871877141E-033 ;   5.7931520369405874E-002
          65 ;   178.42894881599045      ;  -48332.264122248816      ;  -48153.835173432824      ;   4.8751419168769887      ;   1.9258566322391470E-031 ;   5.7891821979976957E-002
          66 ;   178.30407187737347      ;  -48332.014623784751      ;  -48153.710551907381      ;   4.8717299548498145      ;   5.9949787230493269E-032 ;   5.7851583843005851E-002
          67 ;   178.17756602484735      ;  -48331.755979396927      ;  -48153.578413372081      ;   4.8682734866675403      ;   6.4822271105228515E-032 ;   5.7811039331386024E-002
          68 ;   178.04944124262096      ;  -48331.503312362998      ;  -48153.453871120379      ;   4.8647727851246367      ;   1.9414443800503553E-032 ;   5.7769748271145782E-002
          69 ;   177.91970816101457      ;  -48331.243332625469      ;  -48153.323624464450      ;   4.8612281406690050      ;   8.4088373388067667E-033 ;   5.7728836275708385E-002
          70 ;   177.78837802082910      ;  -48330.979902847088      ;  -48153.191524826259      ;   4.8576398604285052      ;   3.9157735515722608E-032 ;   5.7684741423002964E-002
          71 ;   177.65546258900287      ;  -48330.711510582551      ;  -48153.056047993545      ;   4.8540082659064563      ;   4.0663870853576054E-032 ;   5.7642253575815892E-002
          72 ;   177.52097385133561      ;  -48330.440227867242      ;  -48152.919254015906      ;   4.8503336845859835      ;   5.2142571834876607E-032 ;   5.7599725319360848E-002
          73 ;   177.38492479805356      ;  -48330.171456161042      ;  -48152.786531362988      ;   4.8466164713938218      ;   1.7359259915747117E-032 ;   5.7555860475237579E-002
          74 ;   177.24732901119029      ;  -48329.895238774290      ;  -48152.647909763102      ;   4.8428569974262983      ;   4.2389017977972303E-032 ;   5.7513832694362318E-002
          75 ;   177.10820032666260      ;  -48329.617235353697      ;  -48152.509035027033      ;   4.8390556407166319      ;   1.0929883598828474E-031 ;   5.7468970940795845E-002
          76 ;   176.96755319824047      ;  -48329.339267286574      ;  -48152.371714088331      ;   4.8352127961792952      ;   5.4569402077557146E-032 ;   5.7424175259412923E-002
          77 ;   176.82540269977068      ;  -48329.052404504750      ;  -48152.227001804982      ;   4.8313288756709314      ;   9.4568873333205787E-033 ;   5.7379969213505223E-002
          78 ;   176.68176453482232      ;  -48328.766662048452      ;  -48152.084897513632      ;   4.8274043082537563      ;   1.2050999716429632E-031 ;   5.7333655790701286E-002
          79 ;   176.53665468572993      ;  -48328.475928522836      ;  -48151.939273837103      ;   4.8234395306066329      ;   1.1096612595797306E-031 ;   5.7289303954772323E-002
          80 ;   176.39008970852228      ;  -48328.179980476198      ;  -48151.789890767672      ;   4.8194349950832764      ;   1.6197427485990058E-032 ;   5.7242068950064187E-002
          81 ;   176.24208670330918      ;  -48327.885252291620      ;  -48151.643165588313      ;   4.8153911689030053      ;   1.7752835522292117E-031 ;   5.7191929859122768E-002
          82 ;   176.09266325821739      ;  -48327.593058883896      ;  -48151.500395625677      ;   4.8113085326191358      ;   1.1541055935364198E-031 ;   5.7144441617179638E-002
          83 ;   175.94183727443462      ;  -48327.286028803239      ;  -48151.344191528806      ;   4.8071875753385225      ;   3.4802003214543122E-032 ;   5.7098342191610439E-002
          84 ;   175.78962684427353      ;  -48326.977766030614      ;  -48151.188139186343      ;   4.8030287913901413      ;   1.8468116062637477E-031 ;   5.7052652741898170E-002
          85 ;   175.63605131029783      ;  -48326.678292503668      ;  -48151.042241193369      ;   4.7988327092629923      ;   2.2938281361815776E-033 ;   5.7003236997053640E-002
          86 ;   175.48113038427590      ;  -48326.370240108146      ;  -48150.889109723874      ;   4.7945998675337753      ;   1.4325094666083969E-031 ;   5.6952246228445684E-002
          87 ;   175.32488394567861      ;  -48326.055185172554      ;  -48150.730301226875      ;   4.7903308093612011      ;   6.4332285070423197E-032 ;   5.6901948893924463E-002
          88 ;   175.16733244247609      ;  -48325.737263735653      ;  -48150.569931293176      ;   4.7860260934368650      ;   1.7580887162708223E-031 ;   5.6851219171206530E-002
          89 ;   175.00849698914203      ;  -48325.421381954264      ;  -48150.412884965124      ;   4.7816862966629978      ;   7.9976040720892055E-032 ;   5.6800063916904529E-002
          90 ;   174.84839960032474      ;  -48325.108095952717      ;  -48150.259696352390      ;   4.7773120205369271      ;   7.0015743304028284E-033 ;   5.6748491651467697E-002
          91 ;   174.68706213249516      ;  -48324.776202553316      ;  -48150.089140420823      ;   4.7729038622341529      ;   5.7806430627089480E-032 ;   5.6696508710360992E-002
          92 ;   174.52450680815889      ;  -48324.453137117824      ;  -48149.928630309667      ;   4.7684624289312048      ;   1.0773636257626935E-031 ;   5.6644120766951751E-002
          93 ;   174.36075665490824      ;  -48324.126145873175      ;  -48149.765389218264      ;   4.7639883498016351      ;   7.1572999004603120E-032 ;   5.6591336862758843E-002
          94 ;   174.19583493528822      ;  -48323.800651416270      ;  -48149.604816480984      ;   4.7594822604385651      ;   2.0106422140625862E-032 ;   5.6537916953105866E-002
          95 ;   174.02976554999171      ;  -48323.466206034063      ;  -48149.436440484074      ;   4.7549448138709387      ;   1.7479577699687113E-031 ;   5.6483768135666142E-002
          96 ;   173.86257286244140      ;  -48323.136681351076      ;  -48149.274108488637      ;   4.7503766757707062      ;   5.3613376166227110E-032 ;   5.6433408557978695E-002
          97 ;   173.69428136899711      ;  -48322.800863345990      ;  -48149.106581976994      ;   4.7457785154419661      ;   2.1344092189879437E-031 ;   5.6376734487403657E-002
          98 ;   173.52491604422067      ;  -48322.459569966522      ;  -48148.934653922304      ;   4.7411510152545526      ;   2.7277402847459823E-033 ;   5.6324192788873281E-002
          99 ;   173.35450241622385      ;  -48322.120787540844      ;  -48148.766285124620      ;   4.7364948727027771      ;   1.0603397276450900E-031 ;   5.6267480231533433E-002
         100 ;   173.18306649617330      ;  -48321.781240391923      ;  -48148.598173895749      ;   4.7318107984791595      ;   5.1620470455919778E-032 ;   5.6215851192291673E-002
         101 ;   173.01063445908699      ;  -48321.438164879757      ;  -48148.427530420668      ;   4.7270995077531097      ;   1.6643637995072538E-031 ;   5.6157325082235372E-002
         102 ;   172.83723310270278      ;  -48321.093150878354      ;  -48148.255917775648      ;   4.7223617327084213      ;   3.3627779752098808E-032 ;   5.6103935371613498E-002
         103 ;   172.66288970581050      ;  -48320.741389094052      ;  -48148.078499388241      ;   4.7175982186723928      ;   7.5065765589639188E-032 ;   5.6048800711275493E-002
         104 ;   172.48763173255529      ;  -48320.387541744014      ;  -48147.899910011460      ;   4.7128097160367206      ;   1.1165370907795587E-031 ;   5.5992451019776644E-002
         105 ;   172.31148714330183      ;  -48320.040369183305      ;  -48147.728882040006      ;   4.7079969887511641      ;   9.3742328398739597E-032 ;   5.5935804069043624E-002
         106 ;   172.13448465912614      ;  -48319.683032711917      ;  -48147.548548052793      ;   4.7031608215500329      ;   1.0167174825156676E-031 ;   5.5878870505070240E-002
         107 ;   171.95665298137999      ;  -48319.326853678904      ;  -48147.370200697522      ;   4.6983019986287369      ;   2.5736758375214051E-031 ;   5.5823783151902770E-002
         108 ;   171.77802087572240      ;  -48318.967793791075      ;  -48147.189772915350      ;   4.6934213059397418      ;   1.4058076012748607E-032 ;   5.5767374368676174E-002
         109 ;   171.59861799691689      ;  -48318.601304673997      ;  -48147.002686677079      ;   4.6885195537281383      ;   1.3044051055351394E-031 ;   5.5709642490438985E-002
