 Step; Kinetic energy; Potential energy; Total energy; Calculated temperature; Mean momentum squared; Pressure; 
           1 ;   365.83935132768198      ;  -48034.144474143148      ;  -47668.305122815465      ;   9.9956804562020274      ;   2.3313135126218768E-032 ;  0.11849701395361360     
           2 ;   365.67899564866048      ;  -48033.827857671291      ;  -47668.148862022630      ;   9.9912991229172849      ;   3.3934865806009017E-031 ;  0.11844279036172589     
           3 ;   365.51639208615626      ;  -48033.497529872853      ;  -47667.981137786694      ;   9.9868563716223608      ;   8.4873530911139471E-031 ;  0.11839033014137555     
           4 ;   365.35155410052357      ;  -48033.173484216750      ;  -47667.821930116224      ;   9.9823525700891764      ;   1.1142038160844167E-031 ;  0.11833451774610296     
           5 ;   365.18449590733769      ;  -48032.838086079792      ;  -47667.653590172456      ;   9.9777881067239722      ;   1.0775166999592871E-031 ;  0.11828067607259624     
           6 ;   365.01523249652712      ;  -48032.497253969130      ;  -47667.482021472606      ;   9.9731633910905941      ;   8.2821608818422227E-032 ;  0.11822551751265324     
           7 ;   364.84377866505838      ;  -48032.151272792995      ;  -47667.307494127934      ;   9.9684788274805474      ;   9.4310276392242454E-031 ;  0.11817025114700030     
           8 ;   364.67014950538874      ;  -48031.804780976148      ;  -47667.134631470763      ;   9.9637348282589269      ;   1.0676131513462439E-031 ;  0.11811427374722652     
           9 ;   364.49436102146836      ;  -48031.452434690422      ;  -47666.958073668953      ;   9.9589318306951675      ;   3.9703376967229829E-031 ;  0.11805759107575325     
          10 ;   364.31642975998022      ;  -48031.099898277374      ;  -47666.783468517395      ;   9.9540702868876263      ;   7.0471881293434315E-032 ;  0.11800020800463908     
          11 ;   364.13637259062250      ;  -48030.741318020038      ;  -47666.604945429419      ;   9.9491506577601836      ;   3.5741027085178079E-031 ;  0.11794171052923223     
          12 ;   363.95420786403190      ;  -48030.370842960285      ;  -47666.416635096255      ;   9.9441734446999437      ;   3.4205922716195258E-031 ;  0.11788294625033587     
          13 ;   363.76995349680311      ;  -48030.006684183252      ;  -47666.236730686447      ;   9.9391391372346494      ;   4.4341482709472700E-031 ;  0.11782349901489607     
          14 ;   363.58362724461904      ;  -48029.631469838321      ;  -47666.047842593704      ;   9.9340482204957272      ;   1.7915903865380027E-031 ;  0.11776638194880529     
          15 ;   363.39524769885020      ;  -48029.254452953275      ;  -47665.859205254426      ;   9.9289012024476371      ;   2.2144269621849656E-031 ;  0.11770560953386384     
          16 ;   363.20483381277739      ;  -48028.871319059239      ;  -47665.666485246460      ;   9.9236986009431885      ;   4.2958019730405517E-031 ;  0.11764417223308724     
          17 ;   363.01240549495265      ;  -48028.481084843253      ;  -47665.468679348298      ;   9.9184409599356602      ;   1.1709508784317424E-031 ;  0.11758207450510880     
          18 ;   362.81798306953573      ;  -48028.088910045903      ;  -47665.270926976365      ;   9.9131288347339073      ;   3.2627488948201582E-032 ;  0.11752026580294818     
          19 ;   362.62158727781150      ;  -48027.694580208627      ;  -47665.072992930815      ;   9.9077627920436395      ;   9.6352313367582070E-032 ;  0.11745935435438142     
          20 ;   362.42323919090154      ;  -48027.298137664591      ;  -47664.874898473689      ;   9.9023434075825030      ;   8.2688247581468102E-032 ;  0.11739969421217521     
          21 ;   362.22296010584841      ;  -48026.902184590406      ;  -47664.679224484556      ;   9.8968712632410298      ;   1.9276537705720269E-032 ;  0.11733512770956660     
          22 ;   362.02077198115546      ;  -48026.496782425544      ;  -47664.476010444385      ;   9.8913469589824992      ;   5.0240099146318417E-032 ;  0.11727160209095348     
          23 ;   361.81669680547145      ;  -48026.083766214899      ;  -47664.267069409427      ;   9.8857710955938884      ;   1.8307509620738765E-031 ;  0.11720242883387588     
          24 ;   361.61075727688763      ;  -48025.666765150818      ;  -47664.056007873929      ;   9.8801442932459835      ;   1.1611695760712642E-031 ;  0.11714030075340101     
          25 ;   361.40297660968190      ;  -48025.244289508504      ;  -47663.841312898825      ;   9.8744671862129394      ;   6.1759619225387907E-032 ;  0.11707335379866790     
          26 ;   361.19337834362409      ;  -48024.816130868756      ;  -47663.622752525131      ;   9.8687404176625222      ;   1.7677287787119901E-031 ;  0.11700581142280990     
          27 ;   360.98198706677601      ;  -48024.399490266980      ;  -47663.417503200202      ;   9.8629646594043532      ;   2.0917497433987323E-031 ;  0.11693768064913201     
          28 ;   360.76882744848069      ;  -48023.973168505996      ;  -47663.204341057513      ;   9.8571405854688638      ;   1.4735051187913977E-031 ;  0.11686896903466236     
          29 ;   360.55392436290879      ;  -48023.546686982605      ;  -47662.992762619695      ;   9.8512688754829618      ;   1.7868970158818287E-031 ;  0.11680304476783893     
          30 ;   360.33730280108637      ;  -48023.109345309553      ;  -47662.772042508470      ;   9.8453502122663306      ;   4.3169492073554406E-031 ;  0.11673327864410694     
          31 ;   360.11898802715194      ;  -48022.667081372914      ;  -47662.548093345766      ;   9.8393852861007893      ;   4.1145371044649502E-031 ;  0.11666295590345202     
          32 ;   359.89900597058846      ;  -48022.233001952198      ;  -47662.333995981608      ;   9.8333748054471233      ;   2.2247560508790848E-031 ;  0.11659208577543925     
          33 ;   359.67738349364947      ;  -48021.791801657644      ;  -47662.114418163997      ;   9.8273195042517649      ;   1.1782903247647822E-031 ;  0.11652067585081194     
          34 ;   359.45414743788683      ;  -48021.346606607221      ;  -47661.892459169336      ;   9.8212201158956205      ;   3.3677880783523276E-030 ;  0.11644845486567157     
          35 ;   359.22932472128241      ;  -48020.894397753407      ;  -47661.665073032127      ;   9.8150773758477712      ;   3.3638250836479318E-031 ;  0.11637603748577072     
          36 ;   359.00294308638371      ;  -48020.438303714618      ;  -47661.435360628231      ;   9.8088920421066703      ;   1.6403006750238303E-031 ;  0.11630310599522763     
          37 ;   358.77503086159794      ;  -48019.986315237504      ;  -47661.211284375902      ;   9.8026648886778460      ;   6.2869511703577708E-032 ;  0.11623734073340961     
          38 ;   358.54561684321106      ;  -48019.525436657743      ;  -47660.979819814529      ;   9.7963967023505685      ;   2.0731468771275982E-031 ;  0.11616349552442294     
          39 ;   358.31472948143391      ;  -48019.062378888077      ;  -47660.747649406643      ;   9.7900882604584982      ;   1.7986101175960727E-031 ;  0.11609196764547716     
          40 ;   358.08239732378695      ;  -48018.601551048225      ;  -47660.519153724439      ;   9.7837403429938572      ;   3.1270765544717741E-031 ;  0.11601721561701399     
          41 ;   357.84864979295878      ;  -48018.139684396738      ;  -47660.291034603782      ;   9.7773537538609094      ;   2.6997454983358968E-031 ;  0.11594199622183093     
          42 ;   357.61351674309708      ;  -48017.672230893600      ;  -47660.058714150502      ;   9.7709293087524856      ;   1.7720362965019111E-031 ;  0.11586631799690413     
          43 ;   357.37702798046087      ;  -48017.200529847651      ;  -47659.823501867191      ;   9.7644678220528824      ;   4.2713007902630448E-031 ;  0.11578943320212337     
          44 ;   357.13921442883310      ;  -48016.718499993964      ;  -47659.579285565131      ;   9.7579701386801201      ;   7.7215569516528543E-031 ;  0.11571580938541283     
          45 ;   356.90010702252175      ;  -48016.237466009814      ;  -47659.337358987294      ;   9.7514371038397218      ;   1.6229778360355131E-031 ;  0.11563834128044889     
          46 ;   356.65973611375944      ;  -48015.761328734865      ;  -47659.101592621104      ;   9.7448695468335682      ;   1.7723933060685715E-031 ;  0.11556098949607650     
          47 ;   356.41813258651325      ;  -48015.272486051887      ;  -47658.854353465373      ;   9.7382683114916766      ;   2.3120174241654657E-031 ;  0.11548269882770811     
          48 ;   356.17532808113964      ;  -48014.784313702992      ;  -47658.608985621853      ;   9.7316342623106706      ;   5.6717698882614259E-031 ;  0.11540418809932547     
          49 ;   355.93135450496072      ;  -48014.297131208725      ;  -47658.365776703766      ;   9.7249682710815151      ;   3.4957831809263068E-031 ;  0.11532452351337197     
          50 ;   355.68624394432607      ;  -48013.802042230818      ;  -47658.115798286490      ;   9.7182712144864407      ;   3.1752882242568658E-031 ;  0.11524765317744536     
          51 ;   355.44002900241128      ;  -48013.308328822830      ;  -47657.868299820417      ;   9.7115439833288644      ;   9.7696857730782921E-032 ;  0.11516776493868880     
          52 ;   355.19274256090210      ;  -48012.814520295869      ;  -47657.621777734967      ;   9.7047874760217301      ;   9.7713956633462173E-032 ;  0.11508825073062288     
          53 ;   354.94441727217611      ;  -48012.319146203656      ;  -47657.374728931478      ;   9.6980025847127589      ;   9.8166701072263308E-032 ;  0.11500838995518044     
          54 ;   354.69508593719866      ;  -48011.819967727337      ;  -47657.124881790136      ;   9.6911902056094714      ;   2.3636377299554277E-031 ;  0.11492890670821151     
          55 ;   354.44478202868680      ;  -48011.313468372013      ;  -47656.868686343325      ;   9.6843512532732987      ;   2.3950963008934428E-032 ;  0.11484839062202756     
          56 ;   354.19353936956958      ;  -48010.806627008031      ;  -47656.613087638463      ;   9.6774866518344904      ;   8.4183017449270704E-032 ;  0.11476755850730035     
          57 ;   353.94139175162474      ;  -48010.303863567562      ;  -47656.362471815941      ;   9.6705973245720376      ;   3.2023811533110456E-031 ;  0.11468642279339869     
          58 ;   353.68837296338143      ;  -48009.795261997788      ;  -47656.106889034403      ;   9.6636841946762964      ;   8.7911260199222236E-032 ;  0.11460415908431697     
          59 ;   353.43451704608310      ;  -48009.283450554889      ;  -47655.848933508809      ;   9.6567481922424125      ;   7.3464847531116442E-031 ;  0.11452251059883815     
          60 ;   353.17985818199713      ;  -48008.765681160534      ;  -47655.585822978537      ;   9.6497902512185565      ;   3.8760694158387462E-032 ;  0.11444357857788180     
          61 ;   352.92443077390908      ;  -48008.253542331251      ;  -47655.329111557345      ;   9.6428113115781340      ;   4.8005831713550450E-032 ;  0.11436191597618618     
          62 ;   352.66826949561130      ;  -48007.740703667936      ;  -47655.072434172325      ;   9.6358123206991699      ;   9.5978157967053641E-031 ;  0.11427953699073451     
          63 ;   352.41140948268082      ;  -48007.226211834262      ;  -47654.814802351582      ;   9.6287942385767309      ;   5.0006326763076639E-031 ;  0.11419692053459772     
          64 ;   352.15388563265526      ;  -48006.709624608440      ;  -47654.555738975781      ;   9.6217580187021650      ;   1.5399111118363851E-031 ;  0.11411588177704143     
          65 ;   351.89573269670927      ;  -48006.200482369837      ;  -47654.304749673131      ;   9.6147046105677578      ;   3.3180440602354603E-031 ;  0.11403282458713028     
          66 ;   351.63698611318557      ;  -48005.677353330932      ;  -47654.040367217749      ;   9.6076349824409668      ;   4.9709471789124395E-032 ;  0.11394956211937524     
          67 ;   351.37768127003642      ;  -48005.157971527384      ;  -47653.780290257346      ;   9.6005501012124501      ;   1.6683783678088733E-031 ;  0.11386610772011109     
          68 ;   351.11785345187764      ;  -48004.641127578347      ;  -47653.523274126470      ;   9.5934509309495439      ;   2.1368913328750662E-032 ;  0.11378247326887291     
          69 ;   350.85753797829005      ;  -48004.125612527336      ;  -47653.268074549043      ;   9.5863384366748292      ;   3.3332276506754521E-031 ;  0.11369866717799992     
          70 ;   350.59677043276878      ;  -48003.604585434157      ;  -47653.007815001387      ;   9.5792135906217375      ;   1.4220356642398508E-031 ;  0.11361262231838053     
          71 ;   350.33558680774740      ;  -48003.081958127928      ;  -47652.746371320180      ;   9.5720773761969475      ;   1.1326422450872108E-031 ;  0.11352854923126661     
          72 ;   350.07402269175827      ;  -48002.565993090080      ;  -47652.491970398325      ;   9.5649307657714822      ;   7.1645617917395222E-032 ;  0.11344434252883968     
          73 ;   349.81211366248476      ;  -48002.043706866389      ;  -47652.231593203906      ;   9.5577747314200483      ;   2.8725162877855419E-031 ;  0.11336012067867104     
          74 ;   349.54989601435568      ;  -48001.520803685788      ;  -47651.970907671435      ;   9.5506102648005733      ;   3.0155743456595097E-031 ;  0.11327570715719525     
          75 ;   349.28740519419659      ;  -48000.995050181431      ;  -47651.707644987233      ;   9.5434383344123468      ;   8.2567992645357758E-031 ;  0.11319119283209136     
          76 ;   349.02467679637545      ;  -48000.471381120900      ;  -47651.446704324524      ;   9.5362599127858445      ;   8.1206434302091485E-032 ;  0.11310528177037536     
          77 ;   348.76174715557084      ;  -47999.952173122962      ;  -47651.190425967390      ;   9.5290759926788056      ;   1.6242796807905293E-031 ;  0.11302062297516456     
          78 ;   348.49865195189039      ;  -47999.430586421666      ;  -47650.931934469772      ;   9.5218875489643757      ;   3.8289343885353204E-032 ;  0.11293589949042157     
          79 ;   348.23542749425644      ;  -47998.908740922183      ;  -47650.673313427927      ;   9.5146955736964749      ;   1.1574980370804049E-030 ;  0.11285112179352179     
          80 ;   347.97211009771155      ;  -47998.380822428066      ;  -47650.408712330354      ;   9.5075010590963807      ;   2.6768096239156686E-031 ;  0.11276630207468603     
          81 ;   347.70873568952652      ;  -47997.852533550031      ;  -47650.143797860503      ;   9.5003049867903311      ;   2.3151820433655170E-031 ;  0.11268710852862290     
          82 ;   347.44534029641079      ;  -47997.325738751497      ;  -47649.880398455083      ;   9.4931083411215127      ;   2.5496601080349709E-032 ;  0.11260222929318965     
          83 ;   347.18195971696383      ;  -47996.796925685499      ;  -47649.614965968532      ;   9.4859121002005100      ;   8.0655883573381604E-031 ;  0.11251735134181072     
          84 ;   346.91862968298108      ;  -47996.266677871994      ;  -47649.348048189015      ;   9.4787172403128270      ;   7.6989191940680938E-031 ;  0.11243537981874782     
          85 ;   346.65538566863427      ;  -47995.738905684382      ;  -47649.083520015745      ;   9.4715247307047719      ;   2.0944399910573498E-031 ;  0.11235055347034940     
          86 ;   346.39226311353116      ;  -47995.216496402732      ;  -47648.824233289204      ;   9.4643355396784905      ;   2.8384188860112250E-031 ;  0.11226575225491271     
          87 ;   346.12929753243543      ;  -47994.687233123390      ;  -47648.557935590958      ;   9.4571506375894288      ;   1.1886739638141650E-031 ;  0.11218099027844508     
          88 ;   345.86652444252172      ;  -47994.165778951559      ;  -47648.299254509038      ;   9.4499709948589992      ;   4.8594439562665312E-032 ;  0.11210758407555807     
          89 ;   345.60397934247607      ;  -47993.640941066347      ;  -47648.036961723868      ;   9.4427975814034291      ;   3.5540368825663925E-031 ;  0.11202300261643930     
          90 ;   345.34169718635945      ;  -47993.115604508777      ;  -47647.773907322415      ;   9.4356313522583157      ;   1.5011028159536374E-031 ;  0.11193901349269172     
          91 ;   345.07971335961639      ;  -47992.590097520027      ;  -47647.510384160414      ;   9.4284732742459205      ;   2.2423152067212663E-032 ;  0.11185456836550088     
          92 ;   344.81806318324516      ;  -47992.064744828138      ;  -47647.246681644894      ;   9.4213243124274815      ;   1.5655758037956642E-031 ;  0.11177021773125005     
          93 ;   344.55678168682658      ;  -47991.542689828013      ;  -47646.985908141185      ;   9.4141854239021310      ;   1.4099222662260267E-031 ;  0.11167882725661708     
          94 ;   344.29590338608216      ;  -47991.020161294466      ;  -47646.724257908383      ;   9.4070575517289452      ;   8.6399787564727586E-032 ;  0.11160093021087923     
          95 ;   344.03546240857474      ;  -47990.503627568076      ;  -47646.468165159502      ;   9.3999416283614057      ;   2.6824115817236088E-031 ;  0.11151778508886745     
          96 ;   343.77549358737861      ;  -47989.985478174829      ;  -47646.209984587447      ;   9.3928386055296134      ;   3.7290657558683471E-032 ;  0.11143406917779350     
          97 ;   343.51603130008294      ;  -47989.467061656484      ;  -47645.951030356402      ;   9.3857494225184190      ;   1.4529630605728242E-031 ;  0.11135050155796417     
          98 ;   343.25710954627721      ;  -47988.952542198487      ;  -47645.695432652210      ;   9.3786750082849686      ;   5.3267881213335438E-031 ;  0.11126725989221167     
          99 ;   342.99876210439561      ;  -47988.438915389139      ;  -47645.440153284741      ;   9.3716162857436220      ;   1.1412897652478472E-031 ;  0.11118404452415122     
         100 ;   342.74102272102596      ;  -47987.923432766809      ;  -47645.182410045782      ;   9.3645741769387723      ;   5.6741226993421218E-031 ;  0.11110081253823449     
         101 ;   342.48392488499184      ;  -47987.410256947383      ;  -47644.926332062394      ;   9.3575495968720137      ;   6.7495119125489809E-032 ;  0.11101799057369964     
         102 ;   342.22750213671048      ;  -47986.892543951210      ;  -47644.665041814500      ;   9.3505434619545653      ;   4.6535728098373345E-031 ;  0.11093537233909077     
         103 ;   341.97178779721725      ;  -47986.381111813193      ;  -47644.409324015978      ;   9.3435566826035341      ;   9.7917749244658157E-031 ;  0.11085296878317698     
         104 ;   341.71681419841173      ;  -47985.871161090239      ;  -47644.154346891824      ;   9.3365901422103796      ;   4.9559495179780187E-031 ;  0.11077079007600450     
         105 ;   341.46261371311937      ;  -47985.362500192088      ;  -47643.899886478968      ;   9.3296447252846839      ;   2.3909510462414450E-031 ;  0.11068884604448682     
         106 ;   341.20921889583229      ;  -47984.854938738994      ;  -47643.645719843160      ;   9.3227213212996833      ;   1.6148105252306252E-031 ;  0.11060714852452948     
         107 ;   340.95666242079471      ;  -47984.353406060633      ;  -47643.396743639838      ;   9.3158208230004877      ;   3.1141747266677977E-031 ;  0.11052570923825258     
         108 ;   340.70497612634989      ;  -47983.848493713143      ;  -47643.143517586795      ;   9.3089441002932496      ;   1.9994749080814677E-032 ;  0.11044736661908738     
         109 ;   340.45419165905605      ;  -47983.351785190222      ;  -47642.897593531168      ;   9.3020920178440516      ;   2.4459050233733119E-031 ;  0.11036995248488182     
