 Step; Kinetic energy; Potential energy; Total energy; Calculated temperature; Mean momentum squared; Pressure; 
           1 ;   1830.2355765933803      ;  -45522.070354184252      ;  -43691.834777590870      ;   50.006785537988087      ;   9.3041895054439279E-030 ;  0.59248473815997893     
           2 ;   1830.4763933460181      ;  -45522.546097254715      ;  -43692.069703908695      ;   50.013365276605981      ;   2.2363825573590759E-030 ;  0.59256383640408516     
           3 ;   1830.7097286492781      ;  -45523.013276562844      ;  -43692.303547913565      ;   50.019740602612025      ;   5.4385912008172784E-031 ;  0.59264106093138824     
           4 ;   1830.9356410557730      ;  -45523.461512345704      ;  -43692.525871289930      ;   50.025913115815349      ;   1.5822128822936129E-030 ;  0.59269207402862112     
           5 ;   1831.1541958544883      ;  -45523.896056778925      ;  -43692.741860924434      ;   50.031884600080723      ;   5.3480650631457988E-031 ;  0.59275401603287259     
           6 ;   1831.3654687123280      ;  -45524.317571043357      ;  -43692.952102331030      ;   50.037657122824413      ;   2.6627163887217644E-030 ;  0.59282273116452122     
           7 ;   1831.5695432405455      ;  -45524.720848909295      ;  -43693.151305668747      ;   50.043232968522588      ;   2.4081865377926275E-030 ;  0.59289012539292640     
           8 ;   1831.7665097779375      ;  -45525.116309102348      ;  -43693.349799324409      ;   50.048614605465609      ;   3.2353583700072579E-030 ;  0.59295319734497709     
           9 ;   1831.9564667940360      ;  -45525.496725745907      ;  -43693.540258951871      ;   50.053804724096793      ;   1.7354583139394736E-030 ;  0.59301594692220660     
          10 ;   1832.1395197255856      ;  -45525.866660253982      ;  -43693.727140528397      ;   50.058806205221323      ;   2.1949362939773376E-030 ;  0.59307640512974857     
          11 ;   1832.3157795752068      ;  -45526.225311191025      ;  -43693.909531615820      ;   50.063622081719338      ;   6.5540014578747134E-030 ;  0.59313029304683440     
          12 ;   1832.4853640493816      ;  -45526.564467610078      ;  -43694.079103560696      ;   50.068255569637074      ;   2.8555674947593448E-030 ;  0.59318632573095986     
          13 ;   1832.6483979808770      ;  -45526.890521250571      ;  -43694.242123269694      ;   50.072710079729653      ;   1.2333074150429568E-030 ;  0.59323754839852683     
          14 ;   1832.8050110119361      ;  -45527.201940802712      ;  -43694.396929790775      ;   50.076989154159463      ;   1.1728999222392605E-031 ;  0.59328334778341008     
          15 ;   1832.9553381346348      ;  -45527.507187517578      ;  -43694.551849382944      ;   50.081096481260744      ;   4.5720260068084041E-030 ;  0.59333308841830001     
          16 ;   1833.0995203400782      ;  -45527.793232271790      ;  -43694.693711931708      ;   50.085035913276158      ;   2.0153062041323853E-031 ;  0.59337821311384853     
          17 ;   1833.2377033307434      ;  -45528.078542752555      ;  -43694.840839421813      ;   50.088811431175536      ;   8.6469395096414247E-031 ;  0.59342395429500339     
          18 ;   1833.3700356934000      ;  -45528.336791486261      ;  -43694.966755792862      ;   50.092427094734575      ;   2.3312063745128476E-029 ;  0.59348455698127733     
          19 ;   1833.4966707696551      ;  -45528.590044949946      ;  -43695.093374180287      ;   50.095887093644627      ;   1.4651788128303384E-030 ;  0.59352658968151273     
          20 ;   1833.6177650236705      ;  -45528.830167475651      ;  -43695.212402451980      ;   50.099195702912034      ;   1.2014685435508071E-030 ;  0.59356167508601831     
          21 ;   1833.7334783532797      ;  -45529.057480529562      ;  -43695.324002176283      ;   50.102357291360917      ;   4.0699993928489763E-030 ;  0.59359998728543073     
          22 ;   1833.8439742774226      ;  -45529.275638202977      ;  -43695.431663925556      ;   50.105376326752818      ;   8.1563303546008509E-030 ;  0.59363395279861453     
          23 ;   1833.9494175508148      ;  -45529.483946831140      ;  -43695.534529280325      ;   50.108257310614547      ;   1.9298143654372786E-030 ;  0.59367399271287835     
          24 ;   1834.0499739139946      ;  -45529.684529796898      ;  -43695.634555882905      ;   50.111004771406847      ;   3.7193987070438384E-031 ;  0.59370798040538286     
          25 ;   1834.1458102810116      ;  -45529.875415929346      ;  -43695.729605648332      ;   50.113623269655889      ;   1.6784066077285312E-029 ;  0.59373974771253335     
          26 ;   1834.2370939302596      ;  -45530.058733321566      ;  -43695.821639391310      ;   50.116117375840524      ;   4.4765803102770089E-030 ;  0.59376997969706136     
          27 ;   1834.3239931669573      ;  -45530.234561865298      ;  -43695.910568698338      ;   50.118491688496341      ;   5.7697456412009171E-030 ;  0.59379698585123653     
          28 ;   1834.4066762461525      ;  -45530.405285446133      ;  -43695.998609199982      ;   50.120750804788308      ;   2.7793539523629351E-030 ;  0.59382430129374619     
          29 ;   1834.4853116814061      ;  -45530.559721565500      ;  -43696.074409884095      ;   50.122899328943760      ;   8.1877047176808305E-030 ;  0.59384599794352710     
          30 ;   1834.5600669840135      ;  -45530.708444516888      ;  -43696.148377532874      ;   50.124941837806134      ;   1.6248809394753278E-030 ;  0.59387086990249360     
          31 ;   1834.6311076189070      ;  -45530.850764977891      ;  -43696.219657358983      ;   50.126882852306608      ;   1.0865150953475458E-030 ;  0.59389059365438057     
          32 ;   1834.6985983319205      ;  -45530.985473560984      ;  -43696.286875229067      ;   50.128726873729200      ;   3.9910451814714346E-030 ;  0.59391307372813307     
          33 ;   1834.7627021751396      ;  -45531.110080246777      ;  -43696.347378071638      ;   50.130478357079710      ;   4.7425602179862020E-030 ;  0.59394016049248088     
          34 ;   1834.8235781467092      ;  -45531.229510992351      ;  -43696.405932845642      ;   50.132141646600196      ;   2.5157136268354995E-031 ;  0.59396218696555569     
          35 ;   1834.8813842444133      ;  -45531.341780615243      ;  -43696.460396370829      ;   50.133721059200290      ;   3.9734402267891197E-030 ;  0.59397114061182243     
          36 ;   1834.9362766147228      ;  -45531.445406054365      ;  -43696.509129439641      ;   50.135220861206513      ;   8.5292495699285335E-031 ;  0.59398950240939774     
          37 ;   1834.9884056872297      ;  -45531.546321405694      ;  -43696.557915718462      ;   50.136645162745928      ;   5.5776791072418475E-030 ;  0.59400831672485588     
          38 ;   1835.0379203936809      ;  -45531.644056754412      ;  -43696.606136360730      ;   50.137998033020210      ;   7.5149327403477132E-030 ;  0.59402626911634970     
          39 ;   1835.0849653690652      ;  -45531.733524143085      ;  -43696.648558774017      ;   50.139283423832559      ;   7.4668530154800524E-031 ;  0.59403653396391398     
          40 ;   1835.1296790926394      ;  -45531.821145748938      ;  -43696.691466656295      ;   50.140505118795843      ;   1.9978597456909495E-030 ;  0.59405164550841816     
          41 ;   1835.1721977403968      ;  -45531.908473849588      ;  -43696.736276109194      ;   50.141666838591412      ;   3.9676640881304647E-030 ;  0.59406598774756603     
          42 ;   1835.2126524365797      ;  -45531.990394772802      ;  -43696.777742336220      ;   50.142772165873801      ;   3.7698032856166580E-031 ;  0.59408155436944676     
          43 ;   1835.2511687389062      ;  -45532.063320921319      ;  -43696.812152182414      ;   50.143824531205588      ;   1.0058809790270863E-029 ;  0.59409447587969288     
          44 ;   1835.2878687808368      ;  -45532.132101898416      ;  -43696.844233117583      ;   50.144827271590216      ;   6.9513670671835359E-032 ;  0.59410675205289443     
          45 ;   1835.3228693552819      ;  -45532.203116249024      ;  -43696.880246893743      ;   50.145783578113054      ;   3.2362664334271102E-030 ;  0.59411842451685148     
          46 ;   1835.3562816003041      ;  -45532.265834561629      ;  -43696.909552961326      ;   50.146696487353914      ;   1.1800619907316955E-030 ;  0.59414787653804391     
          47 ;   1835.3882109552233      ;  -45532.320725669219      ;  -43696.932514713997      ;   50.147568880189262      ;   4.8001725365383066E-030 ;  0.59414906743397544     
          48 ;   1835.4187562711372      ;  -45532.379760015312      ;  -43696.961003744174      ;   50.148403457487234      ;   1.4421575434378258E-030 ;  0.59417279553872016     
          49 ;   1835.4480103846158      ;  -45532.439286087261      ;  -43696.991275702647      ;   50.149202755783826      ;   2.6761499317130611E-030 ;  0.59418056508095163     
          50 ;   1835.4760602303486      ;  -45532.496148277060      ;  -43697.020088046709      ;   50.149969150360704      ;   1.5847031248612316E-030 ;  0.59419033186825942     
          51 ;   1835.5029883701743      ;  -45532.550253752052      ;  -43697.047265381880      ;   50.150704897020958      ;   7.9307556530029177E-031 ;  0.59419968121667610     
          52 ;   1835.5288709483248      ;  -45532.601246375940      ;  -43697.072375427611      ;   50.151412076223153      ;   4.6392376430067608E-031 ;  0.59419930770820650     
          53 ;   1835.5537761466321      ;  -45532.648748919819      ;  -43697.094972773186      ;   50.152092550871487      ;   2.4381350089393270E-031 ;  0.59420416743766369     
          54 ;   1835.5777669552203      ;  -45532.697751571570      ;  -43697.119984616351      ;   50.152748042019866      ;   7.1928992269484922E-030 ;  0.59422294339229598     
          55 ;   1835.6008992112897      ;  -45532.741198824144      ;  -43697.140299612853      ;   50.153380075285476      ;   2.7519767535602862E-030 ;  0.59423097493840615     
          56 ;   1835.6232232819252      ;  -45532.785333642969      ;  -43697.162110361045      ;   50.153990026827714      ;   8.1624169739218055E-031 ;  0.59423868967271942     
          57 ;   1835.6447834705568      ;  -45532.821543575788      ;  -43697.176760105234      ;   50.154579107131248      ;   8.0073811595687598E-030 ;  0.59424510836055311     
          58 ;   1835.6656164894164      ;  -45532.857322401265      ;  -43697.191705911850      ;   50.155148319269678      ;   1.2364961387402975E-030 ;  0.59425233329246407     
          59 ;   1835.6857526614360      ;  -45532.889149567127      ;  -43697.203396905694      ;   50.155698491743927      ;   2.6575393622210495E-030 ;  0.59425684930727585     
          60 ;   1835.7052172503290      ;  -45532.928081866448      ;  -43697.222864616117      ;   50.156230314824384      ;   6.1550799186100973E-031 ;  0.59426454445357357     
          61 ;   1835.7240282955113      ;  -45532.964427263760      ;  -43697.240398968250      ;   50.156744281394836      ;   6.8732021404397453E-031 ;  0.59427110291945506     
          62 ;   1835.7421957842344      ;  -45532.998206876626      ;  -43697.256011092395      ;   50.157240664332633      ;   4.3375269887344628E-030 ;  0.59426937027393723     
          63 ;   1835.7597247612998      ;  -45533.033270251086      ;  -43697.273545489785      ;   50.157719601474959      ;   1.6169147913095715E-030 ;  0.59427561915111460     
          64 ;   1835.7766150690811      ;  -45533.067312746745      ;  -43697.290697677665      ;   50.158181088514837      ;   7.9231439779482342E-030 ;  0.59428161043993022     
          65 ;   1835.7928602750112      ;  -45533.106465623583      ;  -43697.313605348572      ;   50.158624949698194      ;   2.6099051407469886E-030 ;  0.59428734382521065     
          66 ;   1835.8084464379631      ;  -45533.137133807337      ;  -43697.328687369372      ;   50.159050804117285      ;   3.9945172877354578E-030 ;  0.59428715597557713     
          67 ;   1835.8233538987238      ;  -45533.161324125889      ;  -43697.337970227163      ;   50.159458114631235      ;   3.1810767346226947E-030 ;  0.59430391216800305     
          68 ;   1835.8375575015843      ;  -45533.192813473928      ;  -43697.355255972347      ;   50.159846193920728      ;   1.2920275395949658E-031 ;  0.59430892367373289     
          69 ;   1835.8510259842506      ;  -45533.220016796025      ;  -43697.368990811774      ;   50.160214187818788      ;   1.1058210739075107E-029 ;  0.59431364802450903     
          70 ;   1835.8637225089503      ;  -45533.247212257200      ;  -43697.383489748252      ;   50.160561089821861      ;   5.5000776040670149E-030 ;  0.59431515190755246     
          71 ;   1835.8756040497460      ;  -45533.275594176455      ;  -43697.399990126709      ;   50.160885724349640      ;   8.9385453484801611E-031 ;  0.59431948862787931     
          72 ;   1835.8866219522231      ;  -45533.299433912158      ;  -43697.412811959934      ;   50.161186762037850      ;   1.4408644261230564E-030 ;  0.59433058614953982     
          73 ;   1835.8967226399288      ;  -45533.321696033352      ;  -43697.424973393427      ;   50.161462739037809      ;   1.9907425230981110E-030 ;  0.59433432952015719     
          74 ;   1835.9058468253800      ;  -45533.343285794821      ;  -43697.437438969442      ;   50.161712035462223      ;   5.6045832125568770E-030 ;  0.59434380509145035     
          75 ;   1835.9139296407748      ;  -45533.360746237347      ;  -43697.446816596574      ;   50.161932878954211      ;   1.7552320522806083E-030 ;  0.59434678690880660     
          76 ;   1835.9209021331362      ;  -45533.372660229492      ;  -43697.451758096358      ;   50.162123385539488      ;   1.4907872249983682E-030 ;  0.59435114709091497     
          77 ;   1835.9266897795610      ;  -45533.382460287845      ;  -43697.455770508284      ;   50.162281519059192      ;   1.6783768964944613E-030 ;  0.59435362289971205     
          78 ;   1835.9312123769928      ;  -45533.387170392030      ;  -43697.455958015038      ;   50.162405088157414      ;   1.0083550989076331E-031 ;  0.59435563930633140     
          79 ;   1835.9343846957900      ;  -45533.391484590516      ;  -43697.457099894724      ;   50.162491764139354      ;   2.9622229159449308E-030 ;  0.59435717347425165     
          80 ;   1835.9361162487930      ;  -45533.391124507012      ;  -43697.455008258221      ;   50.162539074661140      ;   1.3257140753598945E-030 ;  0.59435819423677205     
          81 ;   1835.9363138182753      ;  -45533.394098560078      ;  -43697.457784741804      ;   50.162544472772083      ;   1.0927920699086886E-029 ;  0.59435867302187717     
          82 ;   1835.9348807510382      ;  -45533.390227421842      ;  -43697.455346670802      ;   50.162505317656176      ;   3.4620613439131032E-031 ;  0.59437278255708692     
          83 ;   1835.9317155813565      ;  -45533.379821095936      ;  -43697.448105514581      ;   50.162418837006690      ;   3.9020828216398307E-030 ;  0.59437231228612797     
          84 ;   1835.9267126426494      ;  -45533.368298187881      ;  -43697.441585545232      ;   50.162282143738125      ;   8.8774140468197932E-030 ;  0.59437119994980048     
          85 ;   1835.9197626878961      ;  -45533.353138908584      ;  -43697.433376220688      ;   50.162092252938749      ;   7.3953707980498166E-030 ;  0.59436941148468947     
          86 ;   1835.9107515410465      ;  -45533.333602601371      ;  -43697.422851060328      ;   50.161846045022237      ;   5.6806981303000130E-031 ;  0.59438540241538818     
          87 ;   1835.8995603266403      ;  -45533.307146155668      ;  -43697.407585829031      ;   50.161540272002654      ;   8.4206075051119557E-030 ;  0.59438212063208173     
          88 ;   1835.8860694146172      ;  -45533.283515093528      ;  -43697.397445678907      ;   50.161171665276377      ;   4.3912896176602846E-030 ;  0.59437832115985845     
          89 ;   1835.8701560458953      ;  -45533.250175750130      ;  -43697.380019704236      ;   50.160736870746533      ;   1.3722377663961155E-030 ;  0.59437347109016425     
          90 ;   1835.8516923733055      ;  -45533.211989218777      ;  -43697.360296845472      ;   50.160232395297079      ;   1.0432578369764691E-029 ;  0.59436774748106946     
          91 ;   1835.8305471273625      ;  -45533.167930900592      ;  -43697.337383773229      ;   50.159654652304518      ;   8.4861875992686895E-030 ;  0.59436110855157387     
          92 ;   1835.8065870700138      ;  -45533.121058263321      ;  -43697.314471193306      ;   50.159000001359779      ;   7.4808682837617362E-030 ;  0.59432857299079200     
          93 ;   1835.7796782892992      ;  -45533.065728430782      ;  -43697.286050141483      ;   50.158264783640512      ;   9.3740062987316676E-031 ;  0.59431995597621401     
          94 ;   1835.7496837307499      ;  -45533.004483465724      ;  -43697.254799734976      ;   50.157445254462942      ;   3.4499379253339926E-030 ;  0.59432361948138945     
          95 ;   1835.7164625369196      ;  -45532.934225426565      ;  -43697.217762889646      ;   50.156537565236370      ;   9.3788006490287553E-031 ;  0.59431304636119031     
          96 ;   1835.6798734416798      ;  -45532.864399533348      ;  -43697.184526091667      ;   50.155537856203090      ;   8.7607042112704725E-030 ;  0.59430134246144051     
          97 ;   1835.6397729460978      ;  -45532.784222922171      ;  -43697.144449976076      ;   50.154442206600407      ;   8.8564203536742875E-030 ;  0.59429321803908708     
          98 ;   1835.5960159445908      ;  -45532.700319815529      ;  -43697.104303870939      ;   50.153246651766850      ;   2.8436382708139443E-030 ;  0.59427835704603094     
          99 ;   1835.5484561750670      ;  -45532.604969788372      ;  -43697.056513613308      ;   50.151947195442467      ;   4.7149179716197846E-030 ;  0.59426569374533411     
         100 ;   1835.4969437532052      ;  -45532.504020051740      ;  -43697.007076298534      ;   50.150539742399197      ;   5.0109466795151354E-030 ;  0.59424962555281868     
         101 ;   1835.4413272487004      ;  -45532.387181826671      ;  -43696.945854577971      ;   50.149020155167605      ;   1.2475124296942297E-029 ;  0.59422528149670961     
         102 ;   1835.3814553737766      ;  -45532.260552798158      ;  -43696.879097424382      ;   50.147384300172895      ;   5.6156395430994137E-030 ;  0.59420660902400446     
         103 ;   1835.3171761622043      ;  -45532.141493192656      ;  -43696.824317030449      ;   50.145628025304013      ;   1.0944246835625658E-030 ;  0.59418368729781190     
         104 ;   1835.2483371299732      ;  -45532.005634531743      ;  -43696.757297401768      ;   50.143747164301487      ;   5.7858433377467145E-030 ;  0.59416206165617358     
         105 ;   1835.1747860188357      ;  -45531.863166368508      ;  -43696.688380349675      ;   50.141737557075004      ;   9.7929607876765462E-031 ;  0.59414265602630012     
         106 ;   1835.0963675943165      ;  -45531.704564680316      ;  -43696.608197086003      ;   50.139594962216016      ;   2.1051736552697297E-030 ;  0.59411800044863761     
         107 ;   1835.0129270085990      ;  -45531.534382570331      ;  -43696.521455561735      ;   50.137315148880084      ;   1.8063820040491548E-030 ;  0.59408362571863016     
         108 ;   1834.9243102458813      ;  -45531.350265253321      ;  -43696.425955007442      ;   50.134893908956094      ;   3.2036437824202125E-031 ;  0.59405157428777400     
         109 ;   1834.8303629075431      ;  -45531.162652881481      ;  -43696.332289973936      ;   50.132327023873231      ;   2.1709059216689832E-030 ;  0.59401966469793310     
