 The system contains         2916  particles.
 Step; Kinetic energy; Potential energy; Total energy; Calculated temperature; Mean momentum squared; Pressure; 
           1 ;   361.68166111753902      ;  -24317.771981083479      ;  -23956.090319965941      ;   9.8820815701728151      ;   1.2602359948921087E-030 ;  0.11694397623996182      ;   1.1791842982718514E-002
           2 ;   361.63476521978663      ;  -24317.725084320984      ;  -23956.090319101197      ;   9.8808002525481839      ;   2.7528865166578962E-031 ;  0.11693309003704676      ;   1.1919974745181583E-002
           3 ;   361.55580566487959      ;  -24317.645611531356      ;  -23956.089805866475      ;   9.8786428726027236      ;   4.9949220969764857E-030 ;  0.11691183345070329      ;   1.2135712739727689E-002
           4 ;   361.44480192588867      ;  -24317.534478159556      ;  -23956.089676233667      ;   9.8756099623912608      ;   1.7271234646983192E-030 ;  0.11688021280842736      ;   1.2439003760873923E-002
           5 ;   361.30177991215248      ;  -24317.391326127236      ;  -23956.089546215084      ;   9.8717022298241623      ;   6.9488696657424481E-031 ;  0.11683823617837893      ;   1.2829777017583810E-002
           6 ;   361.12677196487573      ;  -24317.216187775837      ;  -23956.089415810962      ;   9.8669205585470667      ;   2.2438815934168622E-031 ;  0.11678591404059310      ;   1.3307944145293349E-002
           7 ;   360.91981685216541      ;  -24317.008973877862      ;  -23956.089157025697      ;   9.8612660078052663      ;   2.3696238158456259E-031 ;  0.11672325862798678      ;   1.3873399219473392E-002
           8 ;   360.68095976357955      ;  -24316.769473631583      ;  -23956.088513868002      ;   9.8547398122947563      ;   5.2943829031775669E-031 ;  0.11665028444568983      ;   1.4526018770524396E-002
           9 ;   360.41025230403028      ;  -24316.498762609215      ;  -23956.088510305184      ;   9.8473433819956515      ;   3.5887909686967570E-031 ;  0.11656700824502855      ;   1.5265661800434871E-002
          10 ;   360.10775248729817      ;  -24316.196258845594      ;  -23956.088506358294      ;   9.8390783019949897      ;   2.4170734938009673E-031 ;  0.11647344852944173      ;   1.6092169800500988E-002
          11 ;   359.77352472901083      ;  -24315.861642768934      ;  -23956.088118039923      ;   9.8299463322948775      ;   2.4711175499416621E-031 ;  0.11636962597089344      ;   1.7005366770512231E-002
          12 ;   359.40763983890605      ;  -24315.495881160859      ;  -23956.088241321955      ;   9.8199494076011096      ;   6.0037433224473052E-031 ;  0.11625556338882076      ;   1.8005059239889043E-002
          13 ;   359.01017501264351      ;  -24315.098027249911      ;  -23956.087852237266      ;   9.8090896370994347      ;   3.6807177977021045E-031 ;  0.11613128546285248      ;   1.9091036290056485E-002
          14 ;   358.58121382301039      ;  -24314.668420601432      ;  -23956.087206778422      ;   9.7973693042152750      ;   5.8388700805063345E-032 ;  0.11599681935133468      ;   2.0263069578472459E-002
          15 ;   358.12084621055084      ;  -24314.207791135868      ;  -23956.086944925319      ;   9.7847908663577012      ;   3.3377567991271532E-032 ;  0.11585219377589252      ;   2.1520913364229899E-002
          16 ;   357.62916847349254      ;  -24313.716235152086      ;  -23956.087066678592      ;   9.7713569546441938      ;   8.7575085941775639E-031 ;  0.11569743983373959      ;   2.2864304535580637E-002
          17 ;   357.10628325739145      ;  -24313.193343312607      ;  -23956.087060055215      ;   9.7570703736177116      ;   1.4112768485118006E-031 ;  0.11553259053741471      ;   2.4292962638228888E-002
          18 ;   356.55229954401563      ;  -24312.638968607673      ;  -23956.086669063658      ;   9.7419341009429736      ;   8.8263240161740882E-032 ;  0.11535768130738339      ;   2.5806589905702615E-002
          19 ;   355.96733263921016      ;  -24312.053994319645      ;  -23956.086661680434      ;   9.7259512870748956      ;   4.1755587809088890E-031 ;  0.11517274876191218      ;   2.7404871292510458E-002
          20 ;   355.35150416095883      ;  -24311.437774091271      ;  -23956.086269930314      ;   9.7091252549323990      ;   1.2069865747385417E-030 ;  0.11497783277562326      ;   2.9087474506760080E-002
          21 ;   354.70494202590095      ;  -24310.791075819889      ;  -23956.086133793986      ;   9.6914594995300245      ;   4.4734316938664275E-031 ;  0.11477297371793854      ;   3.0854050046997594E-002
          22 ;   354.02778043520215      ;  -24310.113649719209      ;  -23956.085869284008      ;   9.6729576875918770      ;   4.7198008001028029E-031 ;  0.11455821532660110      ;   3.2704231240812343E-002
          23 ;   353.32015986130244      ;  -24309.405252275068      ;  -23956.085092413767      ;   9.6536236571895522      ;   1.2297245645047822E-030 ;  0.11433360298306738      ;   3.4637634281044827E-002
          24 ;   352.58222703166609      ;  -24308.667310174525      ;  -23956.085083142858      ;   9.6334614172981432      ;   3.9210999515747068E-031 ;  0.11409918361402442      ;   3.6653858270185635E-002
          25 ;   351.81413491275720      ;  -24307.899208409304      ;  -23956.085073496546      ;   9.6124751473584098      ;   4.3654847982847065E-031 ;  0.11385500655226651      ;   3.8752485264158976E-002
          26 ;   351.01604269527382      ;  -24307.100082204277      ;  -23956.084039509002      ;   9.5906691968733284      ;   7.4416979085051656E-031 ;  0.11360112387157856      ;   4.0933080312667181E-002
          27 ;   350.18811577531119      ;  -24306.271888898464      ;  -23956.083773123151      ;   9.5680480848934391      ;   1.0180980604800782E-031 ;  0.11333758803986023      ;   4.3195191510656095E-002
          28 ;   349.33052573503016      ;  -24305.414032100747      ;  -23956.083506365718      ;   9.5446164994886402      ;   6.0667878069848702E-031 ;  0.11306445485163644      ;   4.5538350051135934E-002
          29 ;   348.44345032481908      ;  -24304.526561565093      ;  -23956.083111240274      ;   9.5203792972608170      ;   4.2048743935671787E-032 ;  0.11278178169762601      ;   4.7962070273918300E-002
          30 ;   347.52707344402296      ;  -24303.609789188617      ;  -23956.082715744593      ;   9.4953415028173094      ;   3.6887308237440845E-031 ;  0.11248962774806878      ;   5.0465849718269062E-002
          31 ;   346.58158512040666      ;  -24302.663777004309      ;  -23956.082191883903      ;   9.4695083082097842      ;   6.2808591142867577E-031 ;  0.11218805403961890      ;   5.3049169179021582E-002
          32 ;   345.60718148838885      ;  -24301.689105135589      ;  -23956.081923647202      ;   9.4428850723395428      ;   6.0090943249498984E-031 ;  0.11187712425543700      ;   5.5711492766045700E-002
          33 ;   344.60406476639815      ;  -24300.686231793406      ;  -23956.082167027009      ;   9.4154773203388284      ;   1.0457377310142651E-031 ;  0.11155690324359796      ;   5.8452267966117133E-002
          34 ;   343.57244323391120      ;  -24299.653701311050      ;  -23956.081258077138      ;   9.3872907429434385      ;   8.3146391541502705E-031 ;  0.11122745849672146      ;   6.1270925705656176E-002
          35 ;   342.51253120696316      ;  -24298.593647946374      ;  -23956.081116739409      ;   9.3583311958236184      ;   2.9786245276703953E-031 ;  0.11088885938383565      ;   6.4166880417638184E-002
          36 ;   341.42454901261408      ;  -24297.505268058834      ;  -23956.080719046222      ;   9.3286046988864140      ;   7.0862683545998826E-031 ;  0.11054117641841181      ;   6.7139530111358647E-002
          37 ;   340.30872296296462      ;  -24296.388659966586      ;  -23956.079937003622      ;   9.2981174355657110      ;   1.1926082916136670E-030 ;  0.11018448282274579      ;   7.0188256443428854E-002
          38 ;   339.16528532974132      ;  -24295.244695921880      ;  -23956.079410592138      ;   9.2668757521278398      ;   1.1567468122770251E-031 ;  0.10981813937220257      ;   7.3312424787216002E-002
          39 ;   337.99447431487010      ;  -24294.074126112006      ;  -23956.079651797136      ;   9.2348861568675638      ;   1.1893551476009511E-030 ;  0.10944363397638558      ;   7.6511384313243669E-002
          40 ;   336.79653401841057      ;  -24292.876170673033      ;  -23956.079636654624      ;   9.2021553192319701      ;   4.9309519640105745E-031 ;  0.10906034920491768      ;   7.9784468076802950E-002
          41 ;   335.57171441022234      ;  -24291.650951578562      ;  -23956.079237168338      ;   9.1686900690463116      ;   1.4063642741200476E-031 ;  0.10866836516008745      ;   8.3130993095368866E-002
          42 ;   334.32027130057952      ;  -24290.399492616987      ;  -23956.079221316406      ;   9.1344973957111204      ;   6.1275895011902493E-032 ;  0.10826776431365850      ;   8.6550260428887915E-002
          43 ;   333.04246630794307      ;  -24289.121799416916      ;  -23956.079333108974      ;   9.0995844473216696      ;   6.9486766434426370E-031 ;  0.10785863130929095      ;   9.0041555267833084E-002
          44 ;   331.73856682421018      ;  -24287.817627386885      ;  -23956.079060562675      ;   9.0639585297184908      ;   4.1221323878717150E-032 ;  0.10744105266464619      ;   9.3604147028150897E-002
          45 ;   330.40884597777341      ;  -24286.487505650810      ;  -23956.078659673036      ;   9.0276271054780537      ;   1.2626166871911412E-030 ;  0.10701511611156594      ;   9.7237289452194675E-002
          46 ;   329.05358259917909      ;  -24285.132353018242      ;  -23956.078770419062      ;   8.9905977929744676      ;   1.0875093005414025E-030 ;  0.10658091160254812      ;  0.10094022070255326     
          47 ;   327.67306118332141      ;  -24283.751558019900      ;  -23956.078496836577      ;   8.9528783653465283      ;   9.2788695864856742E-031 ;  0.10613853140107435      ;  0.10471216346534717     
          48 ;   326.26757185160716      ;  -24282.345282779188      ;  -23956.077710927580      ;   8.9144767494639510      ;   1.3528341708121197E-030 ;  0.10568806867186434      ;  0.10855232505360490     
          49 ;   324.83741031039312      ;  -24280.914590981025      ;  -23956.077180670633      ;   8.8754010247917847      ;   1.1160058976209755E-031 ;  0.10522961928442277      ;  0.11245989752082153     
          50 ;   323.38287781205190      ;  -24279.459655883944      ;  -23956.076778071892      ;   8.8356594223266143      ;   3.4083709280723389E-031 ;  0.10476328069005675      ;  0.11643405776733862     
          51 ;   321.90428111322535      ;  -24277.980656252737      ;  -23956.076375139513      ;   8.7952603234559543      ;   4.2720879286162176E-031 ;  0.10428915167377867      ;  0.12047396765440455     
          52 ;   320.40193242343150      ;  -24276.478672273497      ;  -23956.076739850065      ;   8.7542122585540394      ;   3.9521383584337205E-031 ;  0.10380733269968762      ;  0.12457877414459606     
          53 ;   318.87614936728340      ;  -24274.953509587976      ;  -23956.077360220694      ;   8.7125239059495563      ;   5.1353622492749022E-031 ;  0.10331792633007475      ;  0.12874760940504437     
          54 ;   317.32725493783255      ;  -24273.404851214615      ;  -23956.077596276780      ;   8.6702040906508611      ;   9.5509124748887921E-031 ;  0.10282103691815027      ;  0.13297959093491385     
          55 ;   315.75557744296026      ;  -24271.832641476642      ;  -23956.077064033681      ;   8.6272617828812521      ;   3.7021594544912243E-030 ;  0.10231677049645332      ;  0.13727382171187474     
          56 ;   314.16145045631464      ;  -24270.238109921494      ;  -23956.076659465180      ;   8.5837060967384424      ;   2.4630394428565084E-030 ;  0.10180523480127193      ;  0.14162939032615574     
          57 ;   312.54521277155925      ;  -24268.621979334959      ;  -23956.076766563401      ;   8.5395462889445106      ;   1.8279304918288454E-030 ;  0.10128653908901267      ;  0.14604537110554894     
          58 ;   310.90720834803795      ;  -24266.983825700645      ;  -23956.076617352606      ;   8.4947917573613321      ;   6.5476400397725466E-032 ;  0.10076079462032855      ;  0.15052082426386681     
          59 ;   309.24778625216669      ;  -24265.323870093831      ;  -23956.076083841665      ;   8.4494520393892412      ;   6.3253077412971648E-032 ;  0.10022811387924510      ;  0.15505479606107586     
          60 ;   307.56730060621896      ;  -24263.643106619860      ;  -23956.075806013640      ;   8.4035368105677186      ;   2.3081043560822691E-031 ;   9.9688611629957569E-002 ;  0.15964631894322812     
          61 ;   305.86611053643315      ;  -24261.941894406933      ;  -23956.075783870499      ;   8.3570558831575568      ;   2.0805705606999855E-030 ;   9.9142098534328107E-002 ;  0.16429441168424430     
          62 ;   304.14458010537442      ;  -24260.219957545243      ;  -23956.075377439869      ;   8.3100192042928001      ;   1.8558778752440645E-031 ;   9.8589297352519659E-002 ;  0.16899807957071999     
          63 ;   302.40307823762811      ;  -24258.477920950369      ;  -23956.074842712740      ;   8.2624368539505078      ;   1.6886796970392091E-030 ;   9.8030026745595966E-002 ;  0.17375631460494922     
          64 ;   300.64197867468226      ;  -24256.716670355076      ;  -23956.074691680395      ;   8.2143190437180138      ;   7.0700445743687685E-031 ;   9.7464407292709027E-002 ;  0.17856809562819864     
          65 ;   298.86165991542009      ;  -24254.936456259649      ;  -23956.074796344230      ;   8.1656761151670416      ;   1.1764631568242979E-031 ;   9.6892561322754131E-002 ;  0.18343238848329579     
          66 ;   297.06250514217049      ;  -24253.137149874638      ;  -23956.074644732467      ;   8.1165185378331977      ;   4.2564466827509989E-031 ;   9.6314612895838439E-002 ;  0.18834814621668028     
          67 ;   295.24490216122638      ;  -24251.318243031194      ;  -23956.073340869967      ;   8.0668569075907914      ;   1.2125771502782196E-031 ;   9.5730686837114137E-002 ;  0.19331430924092086     
          68 ;   293.40924332101304      ;  -24249.482048027963      ;  -23956.072804706950      ;   8.0167019444169672      ;   3.1249615194838926E-031 ;   9.5140909356999495E-002 ;  0.19832980555830326     
          69 ;   291.55592544307046      ;  -24247.628577695239      ;  -23956.072652252169      ;   7.9660644905059828      ;   1.0278487990844490E-030 ;   9.4545409506038028E-002 ;  0.20339355094940170     
          70 ;   289.68534975524278      ;  -24245.758105275600      ;  -23956.072755520356      ;   7.9149555084437484      ;   2.0285728959397996E-031 ;   9.3944316127474531E-002 ;  0.20850444915562516     
          71 ;   287.79792180852650      ;  -24243.869884360345      ;  -23956.071962551818      ;   7.8633860789359238      ;   7.2781401160141647E-031 ;   9.3337761118449047E-002 ;  0.21366139210640767     
          72 ;   285.89405141234369      ;  -24241.966116704745      ;  -23956.072065292403      ;   7.8113673990394012      ;   4.1804700343610373E-032 ;   9.2725875559082280E-002 ;  0.21886326009605983     
          73 ;   283.97415255002733      ;  -24240.046448322577      ;  -23956.072295772548      ;   7.7589107798531538      ;   3.7528450629650511E-031 ;   9.2108794158156676E-002 ;  0.22410892201468458     
          74 ;   282.03864329403240      ;  -24238.110657310899      ;  -23956.072014016867      ;   7.7060276442015763      ;   6.0714142328346458E-031 ;   9.1486651396858409E-002 ;  0.22939723557984237     
          75 ;   280.08794572634116      ;  -24236.160061727227      ;  -23956.072116000887      ;   7.6527295244597582      ;   1.6364410763832892E-032 ;   9.0858692921358480E-002 ;  0.23472704755402418     
          76 ;   278.12248585132812      ;  -24234.194319606908      ;  -23956.071833755581      ;   7.5990280601727189      ;   1.7416900766594696E-031 ;   9.0225929013438538E-002 ;  0.24009719398272811     
          77 ;   276.14269352428499      ;  -24232.213732817243      ;  -23956.071039292958      ;   7.5449349961025316      ;   4.7987417608049298E-031 ;   8.9589403446608998E-002 ;  0.24550650038974686     
          78 ;   274.14900236147059      ;  -24230.220142932962      ;  -23956.071140571490      ;   7.4904621797706525      ;   2.8668895488152130E-031 ;   8.8948369873325217E-002 ;  0.25095378202293472     
          79 ;   272.14184963782537      ;  -24228.212963263009      ;  -23956.071113625185      ;   7.4356215586632128      ;   3.8697506947873527E-031 ;   8.8301872360109945E-002 ;  0.25643784413367876     
          80 ;   270.12167619417926      ;  -24226.192250671931      ;  -23956.070574477752      ;   7.3804251776956962      ;   3.2945723278306721E-030 ;   8.7652233145543532E-002 ;  0.26195748223043036     
          81 ;   268.08892635638034      ;  -24224.159601451487      ;  -23956.070675095107      ;   7.3248851770033294      ;   1.6323645907146498E-030 ;   8.6998512133976372E-002 ;  0.26751148229966704     
          82 ;   266.04404782879544      ;  -24222.114823328629      ;  -23956.070775499833      ;   7.2690137890312370      ;   1.1023293843010465E-031 ;   8.6340853457354858E-002 ;  0.27309862109687633     
          83 ;   263.98749159329816      ;  -24220.057983304283      ;  -23956.070491710983      ;   7.2128233357745346      ;   4.5422068684843566E-031 ;   8.5679403860367181E-002 ;  0.27871766642254658     
          84 ;   261.91971182946526      ;  -24217.989023587026      ;  -23956.069311757561      ;   7.1563262265978853      ;   2.9471201180862832E-031 ;   8.5014309327422308E-002 ;  0.28436737734021145     
          85 ;   259.84116580241107      ;  -24215.910577372448      ;  -23956.069411570035      ;   7.0995349551708475      ;   8.7455357627134458E-031 ;   8.4345035324372139E-002 ;  0.29004650448291525     
          86 ;   257.75231375393463      ;  -24213.821824948798      ;  -23956.069511194863      ;   7.0424620964937299      ;   3.7400899215314966E-030 ;   8.3673090574898051E-002 ;  0.29575379035062699     
          87 ;   255.65361880480583      ;  -24211.722333475791      ;  -23956.068714670986      ;   6.9851203042277934      ;   1.1984222751920113E-030 ;   8.2997947294262228E-002 ;  0.30148796957722068     
          88 ;   253.54554683614748      ;  -24209.615000763697      ;  -23956.069453927550      ;   6.9275223074543089      ;   2.0101768305279279E-031 ;   8.2319755258064675E-002 ;  0.30724776925456909     
          89 ;   251.42856638498256      ;  -24207.497479445021      ;  -23956.068913060037      ;   6.8696809078206273      ;   9.7428061969240110E-031 ;   8.1638665653678527E-002 ;  0.31303190921793722     
          90 ;   249.30314855643078      ;  -24205.371776577376      ;  -23956.068628020945      ;   6.8116089771411721      ;   3.4961997070699919E-031 ;   8.0954830793862356E-002 ;  0.31883910228588275     
          91 ;   247.16976689793225      ;  -24203.237981735292      ;  -23956.068214837360      ;   6.7533194539608914      ;   1.0403984518506685E-031 ;   8.0266870678500635E-002 ;  0.32466805460391090     
          92 ;   245.02889727426214      ;  -24201.096698781141      ;  -23956.067801506877      ;   6.6948253401403459      ;   1.4064394025600935E-031 ;   7.9577990698064760E-002 ;  0.33051746598596543     
          93 ;   242.88101775862583      ;  -24198.948917790745      ;  -23956.067900032118      ;   6.6361396978801395      ;   2.5092106411590806E-031 ;   7.8886826176639752E-002 ;  0.33638603021198610     
          94 ;   240.72660850332917      ;  -24196.796270876453      ;  -23956.069662373124      ;   6.5772756461872950      ;   5.8468485557217657E-032 ;   7.8193532571370697E-002 ;  0.34227243538127050     
