 The system contains         2916  particles.
 Step; Kinetic energy; Potential energy; Total energy; Calculated temperature; Mean momentum squared; Pressure; 
           1 ;   190.46570283804238      ;  -24146.535978146570      ;  -23956.070275308528      ;   5.2040172729525134      ;   5.5243834211786087E-031 ;   6.1900525909894775E-002
           2 ;   190.85899575087154      ;  -24146.930813928800      ;  -23956.071818177930      ;   5.2147630559527904      ;   1.8459470512921419E-031 ;   6.2027556742457982E-002
           3 ;   191.24837148457496      ;  -24147.317764458418      ;  -23956.069392973841      ;   5.2254018114540051      ;   3.5877591497476422E-031 ;   6.2153175742990473E-002
           4 ;   191.63371683956518      ;  -24147.701068819195      ;  -23956.067351979629      ;   5.2359304465496717      ;   1.6024291931935987E-031 ;   6.2274983309656952E-002
           5 ;   192.01491998576176      ;  -24148.082790730034      ;  -23956.067870744271      ;   5.2463459057517809      ;   1.5050046135513929E-031 ;   6.2398764093237871E-002
           6 ;   192.39187091124967      ;  -24148.460772472041      ;  -23956.068901560790      ;   5.2566451832493293      ;   1.0454682180554409E-031 ;   6.2520637397111986E-002
           7 ;   192.76446069304188      ;  -24148.834392762226      ;  -23956.069932069186      ;   5.2668253029836460      ;   1.0233715403395907E-031 ;   6.2639725006684049E-002
           8 ;   193.13258158336069      ;  -24149.201368063528      ;  -23956.068786480166      ;   5.2768833210058341      ;   4.2588387392585722E-031 ;   6.2758784255127514E-002
           9 ;   193.49612775649010      ;  -24149.565048764543      ;  -23956.068921008053      ;   5.2868163458827064      ;   4.3138426644192614E-031 ;   6.2876352218461523E-002
          10 ;   193.85499525665261      ;  -24149.924306491474      ;  -23956.069311234820      ;   5.2966215372726495      ;   4.4395934729554585E-031 ;   6.2993761538199425E-002
          11 ;   194.20908131218320      ;  -24150.278270943356      ;  -23956.069189631173      ;   5.3062960871870759      ;   4.3367319058982335E-031 ;   6.3108748027569092E-002
          12 ;   194.55828486308206      ;  -24150.623512780327      ;  -23956.065227917243      ;   5.3158372344045324      ;   1.1780456424713320E-031 ;   6.3221658887751012E-002
          13 ;   194.90250649396955      ;  -24150.966972339840      ;  -23956.064465845870      ;   5.3252422626388576      ;   2.9412490368935038E-031 ;   6.3331891828736719E-002
          14 ;   195.24164836864779      ;  -24151.303560057120      ;  -23956.061911688474      ;   5.3345084987512328      ;   3.4673528628540991E-031 ;   6.3441786236413902E-002
          15 ;   195.57561435475836      ;  -24151.638299608017      ;  -23956.062685253259      ;   5.3436333161561587      ;   1.4932456091858680E-031 ;   6.3549790394589495E-002
          16 ;   195.90431013379009      ;  -24151.969049021689      ;  -23956.064738887901      ;   5.3526141378271461      ;   1.0713454249213847E-031 ;   6.3656077712539505E-002
          17 ;   196.22764291733193      ;  -24152.292131447579      ;  -23956.064488530246      ;   5.3614484285440129      ;   1.0512143053380778E-031 ;   6.3760616266581430E-002
          18 ;   196.54552171201095      ;  -24152.609503610427      ;  -23956.063981898416      ;   5.3701337021316764      ;   2.7535805053029800E-031 ;   6.3863378467589771E-002
          19 ;   196.85785739782929      ;  -24152.922996613161      ;  -23956.065139215330      ;   5.3786675236005221      ;   7.6737185972355535E-031 ;   6.3963851542996650E-002
          20 ;   197.16456204118242      ;  -24153.229834461472      ;  -23956.065272420288      ;   5.3870474903762817      ;   6.3810101132741053E-032 ;   6.4061482358455143E-002
          21 ;   197.46555014416717      ;  -24153.529291637493      ;  -23956.063741493326      ;   5.3952712664343663      ;   1.4896209509091887E-031 ;   6.4158802175252216E-002
          22 ;   197.76073848202279      ;  -24153.824996907628      ;  -23956.064258425606      ;   5.4033365778583402      ;   4.1863006617784075E-031 ;   6.4253888274245372E-002
          23 ;   198.05004499785613      ;  -24154.113412448376      ;  -23956.063367450519      ;   5.4112411826409375      ;   2.7567269834425760E-031 ;   6.4347456892082142E-002
          24 ;   198.33338980875763      ;  -24154.399961763298      ;  -23956.066571954540      ;   5.4189828981737689      ;   8.6027750497635879E-031 ;   6.4437211973782632E-002
          25 ;   198.61069537992373      ;  -24154.678167911683      ;  -23956.067472531759      ;   5.4265596060047923      ;   1.6290566937552984E-031 ;   6.4526931766555343E-002
          26 ;   198.88188601554461      ;  -24154.947955241918      ;  -23956.066069226374      ;   5.4339692379280473      ;   6.5056011368369334E-032 ;   6.4616437021683876E-002
          27 ;   199.14688738909564      ;  -24155.212832805511      ;  -23956.065945416416      ;   5.4412097631499998      ;   1.1764766304082709E-030 ;   6.4704704756439677E-002
          28 ;   199.40562717457709      ;  -24155.473240796167      ;  -23956.067613621592      ;   5.4482792055366458      ;   2.8464901133745994E-031 ;   6.4788458944336907E-002
          29 ;   199.65803578650207      ;  -24155.724885700263      ;  -23956.066849913761      ;   5.4551756638319029      ;   8.9357997755107450E-031 ;   6.4869259496590392E-002
          30 ;   199.90404557783270      ;  -24155.972435549204      ;  -23956.068389971369      ;   5.4618972897431499      ;   5.9824932019009405E-031 ;   6.4949279029313606E-002
          31 ;   200.14359061584017      ;  -24156.213008375984      ;  -23956.069417760144      ;   5.4684422818171354      ;   5.0017536663796993E-031 ;   6.5026465880360609E-002
          32 ;   200.37660727537261      ;  -24156.446540581404      ;  -23956.069933306033      ;   5.4748089016495971      ;   2.4163049959062773E-031 ;   6.5102214621876583E-002
          33 ;   200.60303392971022      ;  -24156.674506935251      ;  -23956.071473005541      ;   5.4809954654386255      ;   8.1082707410386792E-032 ;   6.5177413504852344E-002
          34 ;   200.82281070817132      ;  -24156.892879287821      ;  -23956.070068579651      ;   5.4870003373618292      ;   2.0636035538000037E-031 ;   6.5246702817985530E-002
          35 ;   201.03587987541624      ;  -24157.106079990179      ;  -23956.070200114762      ;   5.4928219399399012      ;   2.2004132687109678E-031 ;   6.5315736932773816E-002
          36 ;   201.24218599330695      ;  -24157.313925325190      ;  -23956.071739331885      ;   5.4984587584590434      ;   3.5767028852520856E-031 ;   6.5382570073591259E-002
          37 ;   201.44167599098793      ;  -24157.512266444581      ;  -23956.070590453593      ;   5.5039093428857626      ;   3.5351514090307927E-032 ;   6.5447754263314548E-002
          38 ;   201.63429886439749      ;  -24157.702588530723      ;  -23956.068289666324      ;   5.5091722996567327      ;   8.4196267735020718E-031 ;   6.5512456855440257E-002
          39 ;   201.82000553243790      ;  -24157.887401994903      ;  -23956.067396462466      ;   5.5142462877489962      ;   7.7667285967171676E-032 ;   6.5571383827582833E-002
          40 ;   201.99874928331710      ;  -24158.065636248088      ;  -23956.066886964771      ;   5.5191300308751732      ;   2.8396423624612224E-031 ;   6.5629307633232839E-002
          41 ;   202.17048568035139      ;  -24158.242111032250      ;  -23956.071625351899      ;   5.5238223149097481      ;   4.5353695199703701E-031 ;   6.5686955437995631E-002
          42 ;   202.33517235764879      ;  -24158.405136235982      ;  -23956.069963878334      ;   5.5283219823066103      ;   1.6552165816967558E-032 ;   6.5740957628403096E-002
          43 ;   202.49276953237705      ;  -24158.562735857740      ;  -23956.069966325362      ;   5.5326279460955439      ;   2.1600110099462024E-031 ;   6.5793498387862651E-002
          44 ;   202.64323952106503      ;  -24158.712952060436      ;  -23956.069712539371      ;   5.5367391766663259      ;   1.2235625793874470E-031 ;   6.5842427513290960E-002
          45 ;   202.78654668993343      ;  -24158.860101041602      ;  -23956.073554351668      ;   5.5406547004116335      ;   9.9928552757830332E-032 ;   6.5887892599187717E-002
          46 ;   202.92265767654243      ;  -24158.994293821503      ;  -23956.071636144959      ;   5.5443736057830328      ;   3.6578666983542322E-032 ;   6.5931589062361434E-002
          47 ;   203.05154139586816      ;  -24159.121899395759      ;  -23956.070357999892      ;   5.5478950434570056      ;   3.8120203502815230E-032 ;   6.5973041732912727E-002
          48 ;   203.17316901681627      ;  -24159.244424605997      ;  -23956.071255589181      ;   5.5512182256932343      ;   1.0451062806036151E-031 ;   6.6012685906553376E-002
          49 ;   203.28751409735952      ;  -24159.356211285613      ;  -23956.068697188253      ;   5.5543424300269146      ;   2.1240391826172908E-031 ;   6.6049962574547205E-002
          50 ;   203.39455223420526      ;  -24159.464275026839      ;  -23956.069722792636      ;   5.5572669896967657      ;   2.1239546424825578E-031 ;   6.6084863142137060E-002
          51 ;   203.49426121117227      ;  -24159.565265050445      ;  -23956.071003839272      ;   5.5599912976990620      ;   3.2183689566692228E-031 ;   6.6116553025675803E-002
          52 ;   203.58662154977665      ;  -24159.658522335983      ;  -23956.071900786206      ;   5.5625148218310763      ;   1.1966127695620776E-031 ;   6.6146709340299856E-002
          53 ;   203.67161607945445      ;  -24159.745565628713      ;  -23956.073949549260      ;   5.5648370929484425      ;   1.0472646959185182E-031 ;   6.6174470217665440E-002
          54 ;   203.74922957560247      ;  -24159.824587995688      ;  -23956.075358420087      ;   5.5669576950754944      ;   5.7978047100597562E-031 ;   6.6199831617647323E-002
          55 ;   203.81944898227604      ;  -24159.898136177813      ;  -23956.078687195539      ;   5.5688762714899394      ;   2.2705181754383476E-031 ;   6.6221685326913068E-002
          56 ;   203.88226402073320      ;  -24159.964151604450      ;  -23956.081887583718      ;   5.5705925413498729      ;   1.6505087529438092E-031 ;   6.6242246265582075E-002
          57 ;   203.93766637884946      ;  -24160.018530234069      ;  -23956.080863855219      ;   5.5721062775464869      ;   1.2404177687498483E-031 ;   6.6260398741887480E-002
          58 ;   203.98565024905517      ;  -24160.070738341215      ;  -23956.085088092161      ;   5.5734173214019043      ;   1.5664045282804791E-031 ;   6.6276138238031149E-002
          59 ;   204.02621215108474      ;  -24160.108996652642      ;  -23956.082784501556      ;   5.5745255778262397      ;   2.6731511346213273E-031 ;   6.6289464660127972E-002
          60 ;   204.05935054574559      ;  -24160.142390856981      ;  -23956.083040311234      ;   5.5754310047647557      ;   3.1908537846928260E-031 ;   6.6300375844799531E-002
          61 ;   204.08506671906983      ;  -24160.164139118438      ;  -23956.079072399367      ;   5.5761336373551877      ;   2.8499562588986544E-031 ;   6.6308874926836334E-002
          62 ;   204.10336378089721      ;  -24160.182819836453      ;  -23956.079456055555      ;   5.5766335605664281      ;   4.7785492175299807E-031 ;   6.6316352498001663E-002
          63 ;   204.11424681662120      ;  -24160.192166306952      ;  -23956.077919490330      ;   5.5769309133446230      ;   3.3395915842387813E-031 ;   6.6320042927351136E-002
          64 ;   204.11772332520906      ;  -24160.198457957675      ;  -23956.080734632465      ;   5.5770259005810194      ;   3.0930910445116882E-031 ;   6.6321325844107867E-002
          65 ;   204.11380350360818      ;  -24160.194793392504      ;  -23956.080989888895      ;   5.5769188008826802      ;   3.1969908700986033E-031 ;   6.6320204081741427E-002
          66 ;   204.10249971061216      ;  -24160.183488735674      ;  -23956.080989025064      ;   5.5766099519239196      ;   5.2328229896388007E-031 ;   6.6316679984198185E-002
          67 ;   204.08382631158207      ;  -24160.165198213115      ;  -23956.081371901531      ;   5.5760997462036803      ;   3.8000262186662719E-031 ;   6.6312247201226804E-002
          68 ;   204.05780050526110      ;  -24160.135843281496      ;  -23956.078042776237      ;   5.5753886536362591      ;   3.5338648138553244E-031 ;   6.6303959101135734E-002
          69 ;   204.02444147208965      ;  -24160.099923011650      ;  -23956.075481539559      ;   5.5744771982810608      ;   2.5874036610891236E-031 ;   6.6295823011179755E-002
          70 ;   203.98377051917083      ;  -24160.058098800695      ;  -23956.074328281524      ;   5.5733659623034386      ;   1.5432508346925446E-030 ;   6.6282763073142736E-002
          71 ;   203.93581158283368      ;  -24160.012442220392      ;  -23956.076630637559      ;   5.5720555997060144      ;   4.5082506298755349E-031 ;   6.6267334987185705E-002
          72 ;   203.88059047890607      ;  -24159.955299532689      ;  -23956.074709053781      ;   5.5705468158442022      ;   2.9604475731155366E-031 ;   6.6247663525687450E-002
          73 ;   203.81813529399520      ;  -24159.891434334055      ;  -23956.073299040061      ;   5.5688403781169953      ;   6.2275142892702054E-031 ;   6.6227546995643261E-002
          74 ;   203.74847624941657      ;  -24159.823437205025      ;  -23956.074960955608      ;   5.5669371122491622      ;   3.3664621376878386E-030 ;   6.6205054481983092E-002
          75 ;   203.67164567099331      ;  -24159.745964313275      ;  -23956.074318642281      ;   5.5648379014660776      ;   6.4739276469833551E-031 ;   6.6180284200002909E-002
          76 ;   203.58767805844147      ;  -24159.664554313713      ;  -23956.076876255273      ;   5.5625436883895114      ;   6.7158894382269679E-031 ;   6.6153192959334500E-002
          77 ;   203.49661011308169      ;  -24159.571180117990      ;  -23956.074570004908      ;   5.5600554757947869      ;   4.2810305246259976E-031 ;   6.6123793317220778E-002
          78 ;   203.39848090930940      ;  -24159.472536373527      ;  -23956.074055464218      ;   5.5573743312957893      ;   6.6104044851138078E-032 ;   6.6092096036066444E-002
          79 ;   203.29333152910471      ;  -24159.367512283872      ;  -23956.074180754767      ;   5.5545013773588225      ;   6.2585061742874983E-032 ;   6.6057833072430058E-002
          80 ;   203.18120517119530      ;  -24159.254231176372      ;  -23956.073026005175      ;   5.5514377942852349      ;   1.9572864087355652E-031 ;   6.6021586710949681E-002
          81 ;   203.06214718968832      ;  -24159.137858187372      ;  -23956.075710997684      ;   5.5481848212669265      ;   8.8798209969214160E-031 ;   6.5983084227880462E-002
          82 ;   202.93620525226748      ;  -24159.008969532286      ;  -23956.072764280019      ;   5.5447437607087195      ;   7.9658047627382318E-031 ;   6.5941526550852017E-002
          83 ;   202.80342872482751      ;  -24158.875165799105      ;  -23956.071737074279      ;   5.5411159614149659      ;   2.9010475609487292E-031 ;   6.5898665137293311E-002
          84 ;   202.66386925177179      ;  -24158.735602966270      ;  -23956.071733714496      ;   5.5373028344447848      ;   1.5685708692330134E-031 ;   6.5857861753698274E-002
          85 ;   202.51758117640628      ;  -24158.589439641222      ;  -23956.071858464817      ;   5.5333058645983222      ;   1.4323423677483386E-031 ;   6.5809960922237107E-002
          86 ;   202.36462032248232      ;  -24158.435963305827      ;  -23956.071342983345      ;   5.5291265771253286      ;   1.6186820340960272E-031 ;   6.5761378345459670E-002
          87 ;   202.20504397887470      ;  -24158.277791247870      ;  -23956.072747268994      ;   5.5247665373065331      ;   7.5043107347473676E-032 ;   6.5711621062137043E-002
          88 ;   202.03891206579823      ;  -24158.107687595319      ;  -23956.068775529522      ;   5.5202273823177013      ;   1.9614262334582741E-031 ;   6.5659254860566604E-002
          89 ;   201.86628653566402      ;  -24157.933906068505      ;  -23956.067619532841      ;   5.5155108048594768      ;   2.2058634655220389E-032 ;   6.5604763517449843E-002
          90 ;   201.68723114015052      ;  -24157.754846742893      ;  -23956.067615602744      ;   5.5106185467931512      ;   6.5265855834052016E-031 ;   6.5546940044753685E-002
          91 ;   201.50181185464905      ;  -24157.570575356283      ;  -23956.068763501633      ;   5.5055524107376295      ;   3.4724331965757132E-031 ;   6.5487044666806521E-002
          92 ;   201.31009599663136      ;  -24157.381671060786      ;  -23956.071575064154      ;   5.5003142359809321      ;   2.3980443268039390E-031 ;   6.5431011777342007E-002
          93 ;   201.11215285302774      ;  -24157.181291645742      ;  -23956.069138792715      ;   5.4949059156217981      ;   6.6594641820510797E-032 ;   6.5367635422904330E-002
          94 ;   200.90805342182659      ;  -24156.976163635307      ;  -23956.068110213480      ;   5.4893293895095159      ;   9.3647220747164920E-032 ;   6.5299140365125991E-002
          95 ;   200.69787056278341      ;  -24156.766487991543      ;  -23956.068617428758      ;   5.4835866483616806      ;   3.6199689410809332E-031 ;   6.5227950440351096E-002
          96 ;   200.48167958715837      ;  -24156.550804344453      ;  -23956.069124757294      ;   5.4776797498773595      ;   2.5526470981969994E-031 ;   6.5158732412605891E-002
          97 ;   200.25955758724746      ;  -24156.330981433439      ;  -23956.071423846191      ;   5.4716108004181390      ;   4.2620380549823764E-031 ;   6.5087080890191829E-002
          98 ;   200.03158291694348      ;  -24156.104153937507      ;  -23956.072571020562      ;   5.4653819408157016      ;   2.4934055987828163E-031 ;   6.5015057290058687E-002
          99 ;   199.79783593898807      ;  -24155.871810096636      ;  -23956.073974157647      ;   5.4589953667886988      ;   3.2751085964711498E-031 ;   6.4942160842191995E-002
         100 ;   199.55839917968456      ;  -24155.633392236974      ;  -23956.074993057289      ;   5.4524533331698963      ;   4.3451779937339075E-032 ;   6.4865081863116389E-002
         101 ;   199.31335584632558      ;  -24155.389239748256      ;  -23956.075883901929      ;   5.4457581133984583      ;   2.4237762303133102E-031 ;   6.4786269344830963E-002
         102 ;   199.06279124323029      ;  -24155.140845674799      ;  -23956.078054431568      ;   5.4389120382097556      ;   7.0913585953685354E-032 ;   6.4705523341667376E-002
         103 ;   198.80679263295241      ;  -24154.883049508997      ;  -23956.076256876044      ;   5.4319174918432074      ;   2.8242560579398079E-031 ;   6.4622957761190147E-002
         104 ;   198.54544828258221      ;  -24154.622979611897      ;  -23956.077531329316      ;   5.4247768859847785      ;   2.6320223590736999E-031 ;   6.4538708550865367E-002
         105 ;   198.27884860449467      ;  -24154.356502349925      ;  -23956.077653745429      ;   5.4174926909351804      ;   1.5092421878048868E-031 ;   6.4454640752037759E-002
         106 ;   198.00708583730813      ;  -24154.085629884725      ;  -23956.078544047417      ;   5.4100674268928310      ;   1.4451079280930289E-031 ;   6.4367027356506762E-002
         107 ;   197.73025332829053      ;  -24153.811351532280      ;  -23956.081098203991      ;   5.4025036443473331      ;   6.3515240994067439E-031 ;   6.4277760132400205E-002
         108 ;   197.44844588896419      ;  -24153.530050253015      ;  -23956.081604364052      ;   5.3948039337955187      ;   3.1192905606413014E-031 ;   6.4184663023445013E-002
         109 ;   197.16176003133572      ;  -24153.242590429134      ;  -23956.080830397797      ;   5.3869709321958643      ;   1.2360401748982027E-031 ;   6.4094227111791552E-002
