 Step; Kinetic energy; Potential energy; Total energy; Calculated temperature; Mean momentum squared; Pressure; 
           1 ;   3660.4634031399369      ;  -41743.537752123390      ;  -38083.074348983449      ;   100.01335932458517      ;   2.9544621315764372E-030 ;   1.1843700776960555     
           2 ;   3660.9569799200035      ;  -41744.532611552859      ;  -38083.575631632855      ;   100.02684512308149      ;   2.6647568276181778E-030 ;   1.1845267286345214     
           3 ;   3661.4551371590360      ;  -41745.532794888597      ;  -38084.077657729562      ;   100.04045607160374      ;   1.1703366389353624E-030 ;   1.1846944210986703     
           4 ;   3661.9577961319615      ;  -41746.541473845689      ;  -38084.583677713730      ;   100.05419001917836      ;   3.8135769455122956E-030 ;   1.1848460340713614     
           5 ;   3662.4648534671205      ;  -41747.563049727716      ;  -38085.098196260595      ;   100.06804414142327      ;   8.1466678134827451E-031 ;   1.1850225378635471     
           6 ;   3662.9761821239708      ;  -41748.582932932994      ;  -38085.606750809020      ;   100.08201496726056      ;   3.4502942487924965E-031 ;   1.1851852013220312     
           7 ;   3663.4916225331021      ;  -41749.615395491928      ;  -38086.123772958825      ;   100.09609813684098      ;   2.1014997259457761E-030 ;   1.1853078190976867     
           8 ;   3664.0109954809986      ;  -41750.654700426960      ;  -38086.643704945964      ;   100.11028875358576      ;   9.9024924392702487E-031 ;   1.1854732204215261     
           9 ;   3664.5341043646958      ;  -41751.703525889257      ;  -38087.169421524559      ;   100.12458144579153      ;   5.6258862697579209E-030 ;   1.1856325190362815     
          10 ;   3665.0607270378396      ;  -41752.753238446167      ;  -38087.692511408328      ;   100.13897014384307      ;   1.7370979291924489E-030 ;   1.1857992063037237     
          11 ;   3665.5906266831107      ;  -41753.818211274120      ;  -38088.227584591012      ;   100.15344837727730      ;   1.5649615338557543E-030 ;   1.1859920139261670     
          12 ;   3666.1235515733824      ;  -41754.882835521748      ;  -38088.759283948370      ;   100.16800926825577      ;   4.0612488944812834E-030 ;   1.1861666759123026     
          13 ;   3666.6592375299847      ;  -41755.957078828869      ;  -38089.297841298881      ;   100.18264559873145      ;   1.3543818331888117E-030 ;   1.1863413113738246     
          14 ;   3667.1974100883008      ;  -41757.031431874202      ;  -38089.834021785900      ;   100.19734986961917      ;   5.5987084657566932E-030 ;   1.1865167149224154     
          15 ;   3667.7377875991851      ;  -41758.108405879218      ;  -38090.370618280031      ;   100.21211438553283      ;   2.4360009979836300E-030 ;   1.1866892611289606     
          16 ;   3668.2800844529183      ;  -41759.184096887591      ;  -38090.904012434672      ;   100.22693134287374      ;   2.9644167324412532E-030 ;   1.1868775624855707     
          17 ;   3668.8240101298838      ;  -41760.268932854582      ;  -38091.444922724695      ;   100.24179280389221      ;   2.9571528855522372E-030 ;   1.1870511344095052     
          18 ;   3669.3692752721863      ;  -41761.360542182898      ;  -38091.991266910714      ;   100.25669086258024      ;   2.1794684503308555E-031 ;   1.1872273998275780     
          19 ;   3669.9155886273711      ;  -41762.454504230103      ;  -38092.538915602730      ;   100.27161756116428      ;   4.0209988740060181E-030 ;   1.1874019790760568     
          20 ;   3670.4626628342185      ;  -41763.543588145811      ;  -38093.080925311595      ;   100.28656504818990      ;   1.2955775647839512E-031 ;   1.1875816718175616     
          21 ;   3671.0102231719802      ;  -41764.637482754537      ;  -38093.627259582558      ;   100.30152581757392      ;   1.9996373176059274E-030 ;   1.1877566494512484     
          22 ;   3671.5580021913120      ;  -41765.733091838818      ;  -38094.175089647506      ;   100.31649256190542      ;   1.0320238598711267E-031 ;   1.1879379596932051     
          23 ;   3672.1057404922035      ;  -41766.834763957828      ;  -38094.729023465625      ;   100.33145819370421      ;   1.0034777737892448E-029 ;   1.1881131394454596     
          24 ;   3672.6531915843216      ;  -41767.934322435663      ;  -38095.281130851341      ;   100.34641597821324      ;   6.0651721492420005E-030 ;   1.1882881730489150     
          25 ;   3673.2001229753937      ;  -41769.020040776246      ;  -38095.819917800851      ;   100.36135956314175      ;   7.2174905362601972E-031 ;   1.1884600018168388     
          26 ;   3673.7463189108612      ;  -41770.113243359592      ;  -38096.366924448732      ;   100.37628305351399      ;   9.3540477707436135E-031 ;   1.1886348835021840     
          27 ;   3674.2915815531933      ;  -41771.204064655190      ;  -38096.912483101994      ;   100.39118104389587      ;   1.9764154635343646E-030 ;   1.1888094106356966     
          28 ;   3674.8357307541874      ;  -41772.289838822675      ;  -38097.454108068487      ;   100.40604861217130      ;   7.8669357356377356E-031 ;   1.1889835252020253     
          29 ;   3675.3786025281688      ;  -41773.375103759841      ;  -38097.996501231675      ;   100.42088127782542      ;   2.3745551145562829E-030 ;   1.1891571737687898     
          30 ;   3675.9200520949926      ;  -41774.452145369898      ;  -38098.532093274902      ;   100.43567508508953      ;   7.8113272824667257E-030 ;   1.1893238908558175     
          31 ;   3676.4599552694399      ;  -41775.535819695593      ;  -38099.075864426151      ;   100.45042664090100      ;   2.0878634022133358E-030 ;   1.1894965318411050     
          32 ;   3676.9982129092396      ;  -41776.618247041413      ;  -38099.620034132175      ;   100.46513323643511      ;   1.2453349664302197E-031 ;   1.1896584852601813     
          33 ;   3677.5347450824961      ;  -41777.696454910896      ;  -38100.161709828397      ;   100.47979268774590      ;   5.3128334243246636E-030 ;   1.1898301249956229     
          34 ;   3678.0694875638274      ;  -41778.760838112808      ;  -38100.691350548979      ;   100.49440324002877      ;   7.3914285198450661E-031 ;   1.1900011405980448     
          35 ;   3678.6023984401718      ;  -41779.818485523210      ;  -38101.216087083041      ;   100.50896374811062      ;   1.6069568457843955E-030 ;   1.1901715179934795     
          36 ;   3679.1334602260540      ;  -41780.868076657047      ;  -38101.734616430993      ;   100.52347373424223      ;   8.1563098800369701E-030 ;   1.1903412537937954     
          37 ;   3679.6626748630874      ;  -41781.934964752851      ;  -38102.272289889763      ;   100.53793325147396      ;   3.9216142181306303E-030 ;   1.1904859205136915     
          38 ;   3680.1900584157584      ;  -41782.991276502129      ;  -38102.801218086373      ;   100.55234273872898      ;   2.1406153895350730E-030 ;   1.1906549243746429     
          39 ;   3680.7156467035620      ;  -41784.038619568506      ;  -38103.322972864946      ;   100.56670317468921      ;   4.2815966793407878E-030 ;   1.1908233093051923     
          40 ;   3681.2394955829750      ;  -41785.087089917637      ;  -38103.847594334664      ;   100.58101608549772      ;   4.2835683137955151E-030 ;   1.1909893350702221     
          41 ;   3681.7616748123560      ;  -41786.128377528468      ;  -38104.366702716114      ;   100.59528337713519      ;   4.9941344867368834E-031 ;   1.1911640461231385     
          42 ;   3682.2822654024603      ;  -41787.167509447616      ;  -38104.885244045159      ;   100.60950726302457      ;   7.1658714775584799E-030 ;   1.1913309803079570     
          43 ;   3682.8013672273000      ;  -41788.201103190899      ;  -38105.399735963598      ;   100.62369047198358      ;   4.5061339562521564E-030 ;   1.1914973880047424     
          44 ;   3683.3190920178631      ;  -41789.230148443690      ;  -38105.911056425830      ;   100.63783605679268      ;   1.1883172688413974E-030 ;   1.1916633067350173     
          45 ;   3683.8355576830318      ;  -41790.252834650062      ;  -38106.417276967033      ;   100.65194723902862      ;   5.8599501631020198E-030 ;   1.1918430351954576     
          46 ;   3684.3508941864534      ;  -41791.283499870915      ;  -38106.932605684458      ;   100.66602756963502      ;   1.5820188269777519E-030 ;   1.1920082394944507     
          47 ;   3684.8652409630772      ;  -41792.315002900839      ;  -38107.449761937765      ;   100.68008085833729      ;   2.2984203827190687E-030 ;   1.1921730791273022     
          48 ;   3685.3787426703857      ;  -41793.341483198405      ;  -38107.962740528019      ;   100.69411105755307      ;   2.3049709222212745E-030 ;   1.1923265719996079     
          49 ;   3685.8915494162757      ;  -41794.367597431861      ;  -38108.476048015582      ;   100.70812226861888      ;   7.0111352912652939E-031 ;   1.1924909432799300     
          50 ;   3686.4038174516800      ;  -41795.386747146200      ;  -38108.982929694517      ;   100.72211876071631      ;   4.3478145891858945E-031 ;   1.1926550941893317     
          51 ;   3686.9157051450611      ;  -41796.413326634305      ;  -38109.497621489245      ;   100.73610486088289      ;   1.3876724173070806E-030 ;   1.1928068723469125     
          52 ;   3687.4273708234914      ;  -41797.438440358237      ;  -38110.011069534747      ;   100.75008489502477      ;   4.1344395161264192E-030 ;   1.1929566597076922     
          53 ;   3687.9389704925043      ;  -41798.457788507665      ;  -38110.518818015160      ;   100.76406312561811      ;   9.1955794569010323E-030 ;   1.1931703401383471     
          54 ;   3688.4506596296087      ;  -41799.479362883285      ;  -38111.028703253673      ;   100.77804380071159      ;   9.1764976917400983E-030 ;   1.1933533918698189     
          55 ;   3688.9625965456371      ;  -41800.499896943875      ;  -38111.537300398239      ;   100.79203124576874      ;   3.2649569114172366E-030 ;   1.1935176719604235     
          56 ;   3689.4749345738765      ;  -41801.524563741732      ;  -38112.049629167857      ;   100.80602965025216      ;   3.2057154120030537E-030 ;   1.1936971930894626     
          57 ;   3689.9878219045831      ;  -41802.542905206879      ;  -38112.555083302293      ;   100.82004306310444      ;   4.9790176538949304E-030 ;   1.1938586654390513     
          58 ;   3690.5014037580727      ;  -41803.562890084635      ;  -38113.061486326566      ;   100.83407545212148      ;   1.2085519500897522E-030 ;   1.1940237346865070     
          59 ;   3691.0158213150626      ;  -41804.595043658373      ;  -38113.579222343309      ;   100.84813067472653      ;   3.5903730250384197E-030 ;   1.1941889954866960     
          60 ;   3691.5312064125865      ;  -41805.620685310234      ;  -38114.089478897644      ;   100.86221233305042      ;   3.2098409705780264E-030 ;   1.1943483037950788     
          61 ;   3692.0476811106168      ;  -41806.655932218775      ;  -38114.608251108155      ;   100.87632376208732      ;   1.1688054057450100E-030 ;   1.1945010552335058     
          62 ;   3692.5653644575150      ;  -41807.696668614080      ;  -38115.131304156566      ;   100.89046821454826      ;   2.4513299737261788E-030 ;   1.1946895577675103     
          63 ;   3693.0843687080469      ;  -41808.737999977195      ;  -38115.653631269146      ;   100.90464875752399      ;   6.2853783128640814E-030 ;   1.1948571096558904     
          64 ;   3693.6047968154335      ;  -41809.779361996727      ;  -38116.174565181296      ;   100.91886820396437      ;   2.5943211576136550E-030 ;   1.1950250359022647     
          65 ;   3694.1267470868033      ;  -41810.820445950521      ;  -38116.693698863717      ;   100.93312923987401      ;   2.9933632745738489E-030 ;   1.1951933610509173     
          66 ;   3694.6503080468292      ;  -41811.869101036384      ;  -38117.218792989552      ;   100.94743428397831      ;   1.6653783058916681E-030 ;   1.1953539062399907     
          67 ;   3695.1755560285128      ;  -41812.917291822232      ;  -38117.741735793723      ;   100.96178542189213      ;   1.8151189627858938E-030 ;   1.1955219367862333     
          68 ;   3695.7025608408235      ;  -41813.965414416431      ;  -38118.262853575608      ;   100.97618456097763      ;   1.6968389659560559E-029 ;   1.1957116439264110     
          69 ;   3696.2313838687905      ;  -41815.024084939301      ;  -38118.792701070510      ;   100.99063337843330      ;   2.1612738282087773E-030 ;   1.1958823703547048     
          70 ;   3696.7620800583527      ;  -41816.087525659328      ;  -38119.325445600974      ;   101.00513337552482      ;   4.8415596218257315E-030 ;   1.1960479115580958     
          71 ;   3697.2946964121534      ;  -41817.149177013242      ;  -38119.854480601090      ;   101.01968583648576      ;   6.0174833069152640E-030 ;   1.1962199264411899     
          72 ;   3697.8292695734908      ;  -41818.223703420270      ;  -38120.394433846777      ;   101.03429176250775      ;   2.4144250346601512E-030 ;   1.1963924790493707     
          73 ;   3698.3658315827533      ;  -41819.284544673385      ;  -38120.918713090628      ;   101.04895202901517      ;   1.9074589816997490E-030 ;   1.1965655785303919     
          74 ;   3698.9044041991592      ;  -41820.366814290828      ;  -38121.462410091670      ;   101.06366723052813      ;   1.7532239598927775E-030 ;   1.1967392320216630     
          75 ;   3699.4450002005842      ;  -41821.451082313681      ;  -38122.006082113097      ;   101.07843771617009      ;   9.6434086288639831E-030 ;   1.1969078453264199     
          76 ;   3699.9876252888389      ;  -41822.532243355199      ;  -38122.544618066357      ;   101.09326364173026      ;   1.7339223903815385E-030 ;   1.1970828067048636     
          77 ;   3700.5322784099753      ;  -41823.622579698800      ;  -38123.090301288823      ;   101.10814497841159      ;   1.6632468377447111E-030 ;   1.1972583261076792     
          78 ;   3701.0789571567611      ;  -41824.712104864127      ;  -38123.633147707369      ;   101.12308166044215      ;   1.6609431190732353E-030 ;   1.1974380816889165     
          79 ;   3701.6276493660544      ;  -41825.815897280263      ;  -38124.188247914208      ;   101.13807335549329      ;   4.5368843735096183E-030 ;   1.1976148262940935     
          80 ;   3702.1783347345363      ;  -41826.921371780438      ;  -38124.743037045904      ;   101.15311950882672      ;   1.5582154424543938E-029 ;   1.1977969307053689     
          81 ;   3702.7309897037694      ;  -41828.023619226180      ;  -38125.292629522410      ;   101.16821947676320      ;   4.1678159613190267E-030 ;   1.1979753997555858     
          82 ;   3703.2855844564510      ;  -41829.130771339653      ;  -38125.845186883205      ;   101.18337244461726      ;   3.5642374423856979E-030 ;   1.1981543883554306     
          83 ;   3703.8420836808955      ;  -41830.242500360837      ;  -38126.400416679942      ;   101.19857744758203      ;   4.8463858067673043E-030 ;   1.1983498295213169     
          84 ;   3704.4004467509035      ;  -41831.355909922815      ;  -38126.955463171915      ;   101.21383337564490      ;   2.0988652439971575E-030 ;   1.1985301164348656     
          85 ;   3704.9606288176788      ;  -41832.478079651832      ;  -38127.517450834152      ;   101.22913900341946      ;   1.6264718791358355E-030 ;   1.1987034723011771     
          86 ;   3705.5225835617116      ;  -41833.597903578557      ;  -38128.075320016847      ;   101.24449306533741      ;   1.6146066712260523E-030 ;   1.1988773225432892     
          87 ;   3706.0862597959695      ;  -41834.720662622320      ;  -38128.634402826348      ;   101.25989416283518      ;   1.8561293821448952E-030 ;   1.1990591100077761     
          88 ;   3706.6516026676281      ;  -41835.847519481431      ;  -38129.195916813806      ;   101.27534079719214      ;   1.1186185774614101E-029 ;   1.1992437013631936     
          89 ;   3707.2185538295639      ;  -41836.977593983043      ;  -38129.759040153476      ;   101.29083137421249      ;   7.5567467533155406E-031 ;   1.1994269378533704     
          90 ;   3707.7870509698723      ;  -41838.119208892058      ;  -38130.332157922188      ;   101.30636419137477      ;   1.0279657682864897E-030 ;   1.1996245606045470     
          91 ;   3708.3570296096423      ;  -41839.260459170400      ;  -38130.903429560756      ;   101.32193748694669      ;   1.0180365294620934E-030 ;   1.1997999176800669     
          92 ;   3708.9284254623585      ;  -41840.401984281321      ;  -38131.473558818965      ;   101.33754950445352      ;   1.6172570044499332E-030 ;   1.1999845562107765     
          93 ;   3709.5011728381196      ;  -41841.544678163817      ;  -38132.043505325695      ;   101.35319844907784      ;   6.6907176131102034E-031 ;   1.2001689784534735     
          94 ;   3710.0752018636131      ;  -41842.686604082934      ;  -38132.611402219321      ;   101.36888241169875      ;   1.9057924842938239E-030 ;   1.2003546729457069     
          95 ;   3710.6504422090020      ;  -41843.837609670634      ;  -38133.187167461634      ;   101.38459947072232      ;   1.9454544885038330E-030 ;   1.2005308007713764     
          96 ;   3711.2268228362541      ;  -41844.990895983763      ;  -38133.764073147511      ;   101.40034768520572      ;   1.9563474848641862E-030 ;   1.2007171092174280     
          97 ;   3711.8042699398029      ;  -41846.145802147817      ;  -38134.341532208011      ;   101.41612503858883      ;   1.8100381006884380E-030 ;   1.2008908022194960     
          98 ;   3712.3827079068701      ;  -41847.296034746745      ;  -38134.913326839873      ;   101.43192946493502      ;   8.4531680719574094E-031 ;   1.2010778383877447     
          99 ;   3712.9620615815857      ;  -41848.450148154880      ;  -38135.488086573292      ;   101.44775891079018      ;   1.8481995175069355E-030 ;   1.2012650699634684     
         100 ;   3713.5422537837167      ;  -41849.607986799834      ;  -38136.065733016119      ;   101.46361126739035      ;   4.4485441597203201E-031 ;   1.2014442497427429     
         101 ;   3714.1232041124422      ;  -41850.769133297887      ;  -38136.645929185441      ;   101.47948433797703      ;   5.6421240519488500E-031 ;   1.2016318767531611     
         102 ;   3714.7048325177830      ;  -41851.929073352214      ;  -38137.224240834432      ;   101.49537593537602      ;   5.3777712776453474E-030 ;   1.2018106353730571     
         103 ;   3715.2870604339960      ;  -41853.093797821901      ;  -38137.806737387902      ;   101.51128391296817      ;   1.8198109402635783E-030 ;   1.2020038738355097     
         104 ;   3715.8698082347000      ;  -41854.264680664448      ;  -38138.394872429752      ;   101.52720609515274      ;   1.6742539632869537E-030 ;   1.2021838073295759     
         105 ;   3716.4529927196486      ;  -41855.420054638424      ;  -38138.967061918775      ;   101.54314020868527      ;   1.7777987203079901E-030 ;   1.2023724711230144     
         106 ;   3717.0365302885411      ;  -41856.581256041143      ;  -38139.544725752603      ;   101.55908396938715      ;   1.4284746565843018E-031 ;   1.2025611400829759     
         107 ;   3717.6203363880145      ;  -41857.752208131409      ;  -38140.131871743397      ;   101.57503506704111      ;   3.4615803567793583E-031 ;   1.2027491782253128     
         108 ;   3718.2043236153281      ;  -41858.918402473035      ;  -38140.714078857709      ;   101.59099111357774      ;   3.5156226379074589E-030 ;   1.2029572051722026     
         109 ;   3718.7884018353643      ;  -41860.084523469945      ;  -38141.296121634579      ;   101.60694964627181      ;   1.6451932919724686E-031 ;   1.2031313187196910     
