 Step; Kinetic energy; Potential energy; Total energy; Calculated temperature; Mean momentum squared; Pressure; 
           1 ;   183.00366178146973      ;  -48344.497702766035      ;  -48161.494040984566      ;   5.0001349467842955      ;   5.5817690004474796E-032 ;   5.9476581615153526E-002
           2 ;   183.00783373522773      ;  -48344.503233192409      ;  -48161.495399457184      ;   5.0002489353874600      ;   3.9527598605179690E-032 ;   5.9477669926074596E-002
           3 ;   183.01121758201870      ;  -48344.508211477732      ;  -48161.496993895715      ;   5.0003413908631185      ;   5.9446575287890858E-032 ;   5.9479132820196963E-002
           4 ;   183.01379252429248      ;  -48344.509268247828      ;  -48161.495475723539      ;   5.0004117449681686      ;   2.4203087638496500E-031 ;   5.9482968887299668E-002
           5 ;   183.01553830656641      ;  -48344.513274496057      ;  -48161.497736189493      ;   5.0004594442703150      ;   6.4908132179566760E-032 ;   5.9483240287056295E-002
           6 ;   183.01643450940026      ;  -48344.514813490183      ;  -48161.498378980781      ;   5.0004839308574498      ;   5.5437259398176086E-032 ;   5.9483677557975997E-002
           7 ;   183.01646071051255      ;  -48344.515124464764      ;  -48161.498663754253      ;   5.0004846467398458      ;   7.0887431349502319E-032 ;   5.9483405546890730E-002
           8 ;   183.01559689013334      ;  -48344.517495392123      ;  -48161.501898501992      ;   5.0004610449253990      ;   6.2202781821128980E-032 ;   5.9482944925446445E-002
           9 ;   183.01382313993474      ;  -48344.507806517358      ;  -48161.493983377426      ;   5.0004125814669766      ;   2.2553947378983684E-031 ;   5.9481783011553289E-002
          10 ;   183.01111931872606      ;  -48344.501889214444      ;  -48161.490769895718      ;   5.0003387060549480      ;   3.8732591103787743E-033 ;   5.9480432725365885E-002
          11 ;   183.00746553809017      ;  -48344.489464546146      ;  -48161.481999008058      ;   5.0002388752861684      ;   4.7752495103961817E-032 ;   5.9479000650661633E-002
          12 ;   183.00284220461182      ;  -48344.478940690300      ;  -48161.476098485691      ;   5.0001125538176714      ;   1.1244722949030789E-031 ;   5.9477243192036178E-002
          13 ;   182.99722975178940      ;  -48344.472325995433      ;  -48161.475096243645      ;   4.9999592070418784      ;   1.2286719737803755E-032 ;   5.9472435918709148E-002
          14 ;   182.99060881022010      ;  -48344.462670669440      ;  -48161.472061859218      ;   4.9997783057364105      ;   8.1473573439566621E-033 ;   5.9470039637632831E-002
          15 ;   182.98296023237555      ;  -48344.451216103633      ;  -48161.468255871259      ;   4.9995693267411143      ;   6.4145223510581266E-032 ;   5.9467300444493006E-002
          16 ;   182.97426497157167      ;  -48344.432291745383      ;  -48161.458026773813      ;   4.9993317496511658      ;   8.8034944646535259E-032 ;   5.9464209809252655E-002
          17 ;   182.96450408718317      ;  -48344.409955952840      ;  -48161.445451865657      ;   4.9990650569595330      ;   6.1228456768330616E-032 ;   5.9461006004561667E-002
          18 ;   182.95365911828409      ;  -48344.386988552003      ;  -48161.433329433719      ;   4.9987687442657549      ;   1.2188930578830512E-031 ;   5.9457198837165208E-002
          19 ;   182.94171154256577      ;  -48344.361047780156      ;  -48161.419336237588      ;   4.9984423054923708      ;   1.9305763494485405E-031 ;   5.9453337734577297E-002
          20 ;   182.92864302511390      ;  -48344.334912964376      ;  -48161.406269939260      ;   4.9980852396819051      ;   6.9576927167179568E-032 ;   5.9448812243873377E-002
          21 ;   182.91443551095801      ;  -48344.308548484929      ;  -48161.394112973969      ;   4.9976970535256813      ;   2.3404275831041569E-032 ;   5.9443906323199847E-002
          22 ;   182.89907105678441      ;  -48344.278589835405      ;  -48161.379518778624      ;   4.9972772567658579      ;   1.5454788635246420E-031 ;   5.9440434650587050E-002
          23 ;   182.88253195551692      ;  -48344.245769708323      ;  -48161.363237752805      ;   4.9968253655991646      ;   4.2744548872712922E-032 ;   5.9434756264215134E-002
          24 ;   182.86480101609425      ;  -48344.213637946421      ;  -48161.348836930323      ;   4.9963409103211349      ;   5.3786349079592299E-032 ;   5.9429175243557668E-002
          25 ;   182.84586114397808      ;  -48344.178064341555      ;  -48161.332203197577      ;   4.9958234238646728      ;   5.6918891306353002E-032 ;   5.9422338629783578E-002
          26 ;   182.82569504981529      ;  -48344.136198401262      ;  -48161.310503351444      ;   4.9952724338397552      ;   2.7940626809138607E-031 ;   5.9415381655956175E-002
          27 ;   182.80428598943047      ;  -48344.094150721750      ;  -48161.289864732316      ;   4.9946874827520924      ;   5.1269628896777630E-033 ;   5.9408184225488873E-002
          28 ;   182.78161756394456      ;  -48344.050863811033      ;  -48161.269246247088      ;   4.9940681225417132      ;   1.3739429673324733E-031 ;   5.9400566249087398E-002
          29 ;   182.75767366057909      ;  -48344.001953960324      ;  -48161.244280299747      ;   4.9934139129656918      ;   3.3784219248733543E-032 ;   5.9392523182208556E-002
          30 ;   182.73243861748807      ;  -48343.949950040449      ;  -48161.217511422961      ;   4.9927244261018116      ;   1.0928727776673921E-032 ;   5.9384050948503277E-002
          31 ;   182.70589667445486      ;  -48343.896100006124      ;  -48161.190203331673      ;   4.9919992313400003      ;   1.2709981810801203E-031 ;   5.9378994131077084E-002
          32 ;   182.67803218113281      ;  -48343.838580741358      ;  -48161.160548560227      ;   4.9912379010721857      ;   9.1743086306263547E-032 ;   5.9369672128570750E-002
          33 ;   182.64883030362745      ;  -48343.784786691074      ;  -48161.135956387450      ;   4.9904400299979041      ;   3.2675422544125421E-032 ;   5.9359904924027013E-002
          34 ;   182.61827646231768      ;  -48343.717281169578      ;  -48161.099004707263      ;   4.9896052197640373      ;   4.8622465927949083E-032 ;   5.9349688250487538E-002
          35 ;   182.58635595168803      ;  -48343.655490064732      ;  -48161.069134113044      ;   4.9887330685777327      ;   1.3713862887266012E-032 ;   5.9338560326705370E-002
          36 ;   182.55305490417635      ;  -48343.588889578779      ;  -48161.035834674600      ;   4.9878231975412328      ;   2.5684250613113568E-031 ;   5.9328242398458776E-002
          37 ;   182.51835979253713      ;  -48343.517197161163      ;  -48160.998837368628      ;   4.9868752370550951      ;   2.0514324162776550E-032 ;   5.9316687701249059E-002
          38 ;   182.48225706369630      ;  -48343.444225292507      ;  -48160.961968228810      ;   4.9858888168141213      ;   1.1871053067536229E-031 ;   5.9304665418556904E-002
          39 ;   182.44473389648994      ;  -48343.367132557920      ;  -48160.922398661431      ;   4.9848635865108832      ;   5.8772896089236890E-032 ;   5.9290774422334047E-002
          40 ;   182.40577773020226      ;  -48343.283334191903      ;  -48160.877556461703      ;   4.9837992029540059      ;   8.8414384548130067E-032 ;   5.9277826983877881E-002
          41 ;   182.36537576020928      ;  -48343.195364064821      ;  -48160.829988304613      ;   4.9826953162879342      ;   1.5393629131525480E-031 ;   5.9264397311122229E-002
          42 ;   182.32351563962413      ;  -48343.107549639331      ;  -48160.784033999706      ;   4.9815515891637148      ;   3.5714112011936392E-032 ;   5.9248836132861131E-002
          43 ;   182.28018582924460      ;  -48343.015259761582      ;  -48160.735073932337      ;   4.9803677063003375      ;   7.7641197409968901E-032 ;   5.9232060828397555E-002
          44 ;   182.23537528575309      ;  -48342.925127952549      ;  -48160.689752666796      ;   4.9791433659657400      ;   1.4212319447289691E-032 ;   5.9219545943313100E-002
          45 ;   182.18907310013745      ;  -48342.826892995305      ;  -48160.637819895164      ;   4.9778782700974276      ;   1.0993929355586783E-031 ;   5.9204252599863394E-002
          46 ;   182.14126850338488      ;  -48342.734613309702      ;  -48160.593344806315      ;   4.9765721244579666      ;   1.9681603835656033E-032 ;   5.9188460150612042E-002
          47 ;   182.09195134926881      ;  -48342.640588305730      ;  -48160.548636956461      ;   4.9752246518261583      ;   9.4109615655966528E-032 ;   5.9172165153210193E-002
          48 ;   182.04111204526498      ;  -48342.542239194212      ;  -48160.501127148949      ;   4.9738355901093305      ;   1.7655282481273304E-032 ;   5.9155366423142140E-002
          49 ;   181.98874097629763      ;  -48342.438778237585      ;  -48160.450037261289      ;   4.9724046765986785      ;   7.8432770468387322E-032 ;   5.9138060774724492E-002
          50 ;   181.93482894487204      ;  -48342.325579003176      ;  -48160.390750058301      ;   4.9709316599947195      ;   9.4677619686204191E-032 ;   5.9120244988909589E-002
          51 ;   181.87936746687961      ;  -48342.210049447312      ;  -48160.330681980435      ;   4.9694163084896985      ;   5.8588030591488610E-032 ;   5.9101462168254466E-002
          52 ;   181.82234841129215      ;  -48342.098828357746      ;  -48160.276479946457      ;   4.9678583999227115      ;   1.6800779860062977E-031 ;   5.9082632468311670E-002
          53 ;   181.76376404515162      ;  -48341.980892426429      ;  -48160.217128381279      ;   4.9662577230093472      ;   4.9288285535952090E-032 ;   5.9062973181291223E-002
          54 ;   181.70360678308322      ;  -48341.862883025155      ;  -48160.159276242070      ;   4.9646140704974817      ;   1.3862111939158041E-031 ;   5.9043096764169391E-002
          55 ;   181.64186980075246      ;  -48341.741457846088      ;  -48160.099588045334      ;   4.9629272559285429      ;   4.5897565663354293E-032 ;   5.9023662810798280E-002
          56 ;   181.57854662859552      ;  -48341.613276065596      ;  -48160.034729437000      ;   4.9611971025372812      ;   4.3221408070191520E-032 ;   5.9002758421605864E-002
          57 ;   181.51363080229504      ;  -48341.479605361208      ;  -48159.965974558916      ;   4.9594234337017866      ;   4.8731707633299446E-032 ;   5.8983821917069468E-002
          58 ;   181.44711653842455      ;  -48341.349649486889      ;  -48159.902532948465      ;   4.9576060914038278      ;   1.6384835792478357E-031 ;   5.8959358445064135E-002
          59 ;   181.37899863652817      ;  -48341.212134437752      ;  -48159.833135801222      ;   4.9557449335534320      ;   1.4190193708902523E-032 ;   5.8934449499813885E-002
          60 ;   181.30927239191374      ;  -48341.080618260756      ;  -48159.771345868845      ;   4.9538398316062375      ;   1.9695328398154103E-031 ;   5.8912055291688782E-002
          61 ;   181.23793355417763      ;  -48340.934357264341      ;  -48159.696423710164      ;   4.9518906694301590      ;   2.9480598014979351E-032 ;   5.8889966126229182E-002
          62 ;   181.16497803218817      ;  -48340.790750642474      ;  -48159.625772610285      ;   4.9498973352448985      ;   4.7881815091311277E-032 ;   5.8865996486539909E-002
          63 ;   181.09040239380471      ;  -48340.635968074443      ;  -48159.545565680637      ;   4.9478597352753972      ;   3.8474281363990127E-032 ;   5.8841491192209223E-002
          64 ;   181.01420422979282      ;  -48340.485620219435      ;  -48159.471415989639      ;   4.9457778036952043      ;   3.1018435903357690E-032 ;   5.8816448705170728E-002
          65 ;   180.93638121618926      ;  -48340.329718753579      ;  -48159.393337537389      ;   4.9436514770075499      ;   9.7796556235031300E-032 ;   5.8790868117612208E-002
          66 ;   180.85693054659885      ;  -48340.174657751711      ;  -48159.317727205111      ;   4.9414806785344672      ;   7.5505172021373991E-032 ;   5.8764772371598606E-002
          67 ;   180.77585057180252      ;  -48340.008658070379      ;  -48159.232807498578      ;   4.9392653632150161      ;   2.5201083929020125E-032 ;   5.8738139194156658E-002
          68 ;   180.69314038119700      ;  -48339.838885932375      ;  -48159.145745551177      ;   4.9370055061691183      ;   2.7974330583165383E-032 ;   5.8710966544121695E-002
          69 ;   180.60879915217834      ;  -48339.666875572155      ;  -48159.058076419977      ;   4.9347010849210964      ;   7.3389621196659737E-032 ;   5.8680671619461590E-002
          70 ;   180.52282680155324      ;  -48339.497746690613      ;  -48158.974919889057      ;   4.9323520971979296      ;   1.4081407727715961E-031 ;   5.8650999864190312E-002
          71 ;   180.43522368742413      ;  -48339.322796801804      ;  -48158.887573114378      ;   4.9299585527839094      ;   3.2447758603168534E-032 ;   5.8622236190347780E-002
          72 ;   180.34599073144750      ;  -48339.145610775478      ;  -48158.799620044032      ;   4.9275204768610648      ;   1.4101360520452564E-032 ;   5.8592933880389511E-002
          73 ;   180.25512919994335      ;  -48338.963119175125      ;  -48158.707989975184      ;   4.9250379040285335      ;   3.2524835429132179E-032 ;   5.8563779803804054E-002
          74 ;   180.16264056580491      ;  -48338.777885583018      ;  -48158.615245017216      ;   4.9225108745295714      ;   1.5228808892286168E-031 ;   5.8533974358411123E-002
          75 ;   180.06852672618848      ;  -48338.592985752046      ;  -48158.524459025859      ;   4.9199394401994541      ;   2.2656557967515921E-032 ;   5.8503098423624562E-002
          76 ;   179.97279067088891      ;  -48338.403305264423      ;  -48158.430514593536      ;   4.9173236827271358      ;   1.6917709433915622E-031 ;   5.8471686360036988E-002
          77 ;   179.87543582571260      ;  -48338.204755441533      ;  -48158.329319615819      ;   4.9146636957144798      ;   7.2787338783667041E-032 ;   5.8441116015635494E-002
          78 ;   179.77646564353657      ;  -48338.006302668728      ;  -48158.229837025188      ;   4.9119595735031032      ;   8.9268173861953588E-032 ;   5.8411140967746709E-002
          79 ;   179.67588426011631      ;  -48337.803347232475      ;  -48158.127462972356      ;   4.9092114290925526      ;   1.4600873832160406E-032 ;   5.8378184224244366E-002
          80 ;   179.57369662365301      ;  -48337.597691430856      ;  -48158.023994807205      ;   4.9064193976805122      ;   7.1820278898697283E-032 ;   5.8344697117421622E-002
          81 ;   179.46990800199495      ;  -48337.393441186476      ;  -48157.923533184483      ;   4.9035836231983216      ;   4.4659052689515145E-032 ;   5.8310680835943700E-002
          82 ;   179.36452390960994      ;  -48337.183696190477      ;  -48157.819172280870      ;   4.9007042563154828      ;   6.7697758484816546E-032 ;   5.8276420664333320E-002
          83 ;   179.25755055726813      ;  -48336.966932690695      ;  -48157.709382133427      ;   4.8977814667263937      ;   5.1323060903808130E-032 ;   5.8241426339187261E-002
          84 ;   179.14899443402436      ;  -48336.752379583195      ;  -48157.603385149174      ;   4.8948154317288690      ;   4.4965444630942184E-033 ;   5.8205909018430445E-002
          85 ;   179.03886267344564      ;  -48336.521875403254      ;  -48157.483012729812      ;   4.8918063462304859      ;   6.7855478673677889E-032 ;   5.8171428641300239E-002
          86 ;   178.92716296574986      ;  -48336.300523289654      ;  -48157.373360323902      ;   4.8887544203478894      ;   4.2921356638869460E-032 ;   5.8134883000842588E-002
          87 ;   178.81390323054978      ;  -48336.072466618345      ;  -48157.258563387797      ;   4.8856598704655454      ;   1.0710673671344894E-031 ;   5.8098930541163767E-002
          88 ;   178.69909224408076      ;  -48335.836699579013      ;  -48157.137607334931      ;   4.8825229363729266      ;   1.0242393976602096E-031 ;   5.8061368147175135E-002
          89 ;   178.58273916954795      ;  -48335.602968219886      ;  -48157.020229050337      ;   4.8793438684325867      ;   6.9418942790397182E-032 ;   5.8021786255127911E-002
          90 ;   178.46485351462746      ;  -48335.368219517797      ;  -48156.903366003171      ;   4.8761229264188568      ;   1.0368973014270757E-031 ;   5.7983220477009406E-002
          91 ;   178.34544501638462      ;  -48335.131961049054      ;  -48156.786516032669      ;   4.8728603763737173      ;   7.3930347824049941E-032 ;   5.7944151084418423E-002
          92 ;   178.22452415579022      ;  -48334.891654434759      ;  -48156.667130278969      ;   4.8695565046644482      ;   5.5913392078871821E-032 ;   5.7904580090514753E-002
          93 ;   178.10210217993489      ;  -48334.641177415004      ;  -48156.539075235072      ;   4.8662116185907518      ;   6.3238134283687772E-032 ;   5.7866274126685983E-002
          94 ;   177.97819045984843      ;  -48334.391816370589      ;  -48156.413625910740      ;   4.8628260288386782      ;   4.1532850972859418E-032 ;   5.7825730972443000E-002
          95 ;   177.85280107792306      ;  -48334.146668259214      ;  -48156.293867181288      ;   4.8594000655305258      ;   6.4146082121324646E-032 ;   5.7782617077161529E-002
          96 ;   177.72594641602268      ;  -48333.894237391127      ;  -48156.168290975103      ;   4.8559340669709448      ;   1.1665362956911908E-031 ;   5.7741148805934880E-002
          97 ;   177.59763991034868      ;  -48333.641462588523      ;  -48156.043822678177      ;   4.8524284002718288      ;   2.4792319168189788E-032 ;   5.7699202751639166E-002
          98 ;   177.46789555718624      ;  -48333.377108552886      ;  -48155.909212995699      ;   4.8488834478480438      ;   2.7006940463294332E-032 ;   5.7656781461211608E-002
          99 ;   177.33672678628523      ;  -48333.118097561368      ;  -48155.781370775083      ;   4.8452995766351998      ;   2.1923304392667255E-031 ;   5.7613886450042534E-002
         100 ;   177.20414780496793      ;  -48332.852425257704      ;  -48155.648277452739      ;   4.8416771748141434      ;   7.6901471231054737E-032 ;   5.7570526161843605E-002
         101 ;   177.07017384158314      ;  -48332.580891539583      ;  -48155.510717698002      ;   4.8380166584629585      ;   8.4873671983361367E-033 ;   5.7524928038867468E-002
         102 ;   176.93482041067088      ;  -48332.310438544519      ;  -48155.375618133847      ;   4.8343184514790956      ;   7.0428338789713709E-032 ;   5.7481996797319225E-002
         103 ;   176.79810320785157      ;  -48332.035466563233      ;  -48155.237363355380      ;   4.8305829827076652      ;   6.9685112120845763E-032 ;   5.7435596199189108E-002
         104 ;   176.66003862790589      ;  -48331.762407061600      ;  -48155.102368433698      ;   4.8268107000966012      ;   2.9325532914724469E-031 ;   5.7391403836467736E-002
         105 ;   176.52064331993677      ;  -48331.481822652830      ;  -48154.961179332895      ;   4.8230020585425954      ;   3.3132665788466737E-032 ;   5.7345855223901003E-002
         106 ;   176.37993442399454      ;  -48331.202450598401      ;  -48154.822516174405      ;   4.8191575263563360      ;   3.2468497354970234E-032 ;   5.7299869947839692E-002
         107 ;   176.23792995324038      ;  -48330.919719441546      ;  -48154.681789488306      ;   4.8152775957040808      ;   8.4363657201792156E-032 ;   5.7253455518968321E-002
         108 ;   176.09464827817695      ;  -48330.639041794391      ;  -48154.544393516211      ;   4.8113627685156910      ;   1.1481587234337920E-031 ;   5.7203160573605895E-002
         109 ;   175.95010777928474      ;  -48330.353285917066      ;  -48154.403178137785      ;   4.8074135469935566      ;   2.4602764334843036E-032 ;   5.7155956782050175E-002
