 Step; Kinetic energy; Potential energy; Total energy; Calculated temperature; Mean momentum squared; Pressure; 
           1 ;   3750.2604116193806      ;  -48635.219119943584      ;  -44884.958708324200      ;   102.46684662557107      ;   7.4402768664455048E-030 ;   1.2125572984635211     
           2 ;   3749.7662237617069      ;  -48634.229706768267      ;  -44884.463483006562      ;   102.45334413084794      ;   1.8935267674957428E-030 ;   1.2124105659586584     
           3 ;   3748.9400851785331      ;  -48632.576396641489      ;  -44883.636311462957      ;   102.43077188087031      ;   1.4825644915381896E-030 ;   1.2121564604753507     
           4 ;   3747.7820964501357      ;  -48630.259134701715      ;  -44882.477038251578      ;   102.39913262375084      ;   8.1514020610277958E-031 ;   1.2117950168089540     
           5 ;   3746.2923500890874      ;  -48627.279385889909      ;  -44880.987035800819      ;   102.35842888717436      ;   3.9452228433185968E-030 ;   1.2113262674586711     
           6 ;   3744.4709308447027      ;  -48623.635015722219      ;  -44879.164084877513      ;   102.30866298671114      ;   6.6960394145916481E-030 ;   1.2107502417367551     
           7 ;   3742.3179161032235      ;  -48619.328226836486      ;  -44877.010310733262      ;   102.24983703675520      ;   1.1834050643127337E-029 ;   1.2100669672750515     
           8 ;   3739.8333763837927      ;  -48614.358136221723      ;  -44874.524759837928      ;   102.18195296407083      ;   2.0731608160315744E-030 ;   1.2092764690121254     
           9 ;   3737.0173759310132      ;  -48608.724616280866      ;  -44871.707240349853      ;   102.10501252398883      ;   2.8057486373192173E-030 ;   1.2083787700180670     
          10 ;   3733.8699734038587      ;  -48602.427528231987      ;  -44868.557554828127      ;   102.01901731922393      ;   4.6359284251078036E-030 ;   1.2073738911537044     
          11 ;   3730.3912226609464      ;  -48595.469027605111      ;  -44865.077804944165      ;   101.92396882133390      ;   5.7266219166145302E-031 ;   1.2062618529176150     
          12 ;   3726.5811736438250      ;  -48587.848446173841      ;  -44861.267272530014      ;   101.81986839485029      ;   3.6363174180107785E-030 ;   1.2050426729494448     
          13 ;   3722.4398733588778      ;  -48579.565365819959      ;  -44857.125492461084      ;   101.70671732411026      ;   1.0111380544678767E-030 ;   1.2037163688559003     
          14 ;   3717.9673669574549      ;  -48570.619620693586      ;  -44852.652253736131      ;   101.58451684276615      ;   1.7307362840537868E-030 ;   1.2022829571929678     
          15 ;   3713.1636989158319      ;  -48561.011043579187      ;  -44847.847344663358      ;   101.45326816602430      ;   2.4090793505906437E-029 ;   1.2007424548112142     
          16 ;   3708.0289143140230      ;  -48550.740236433121      ;  -44842.711322119096      ;   101.31297252558865      ;   1.1730016610076532E-029 ;   1.1990948780187349     
          17 ;   3702.5630602157862      ;  -48539.807293181431      ;  -44837.244232965648      ;   101.16363120736304      ;   4.3299089886494348E-030 ;   1.1973402441767727     
          18 ;   3696.7661871501364      ;  -48528.212826649542      ;  -44831.446639499409      ;   101.00524559193053      ;   1.4430250705235433E-030 ;   1.1954785717132472     
          19 ;   3690.6383506977327      ;  -48515.956947767307      ;  -44825.318597069578      ;   100.83781719789935      ;   5.7685221208915974E-031 ;   1.1935098805783684     
          20 ;   3653.5433227097619      ;  -48503.093196656468      ;  -44849.549873946708      ;   99.824284769154431      ;   1.3821635707775383E-030 ;   1.1815287320188390     
          21 ;   3653.2092130206706      ;  -48489.561228469545      ;  -44836.352015448872      ;   99.815156025411170      ;   2.9975268762094514E-030 ;   1.1814332275268744     
          22 ;   3652.8739755655515      ;  -48475.359555458606      ;  -44822.485579893051      ;   99.805996468173774      ;   2.3919162237874774E-030 ;   1.1813373651786649     
          23 ;   3652.5375540480177      ;  -48460.482225409796      ;  -44807.944671361780      ;   99.796804559277746      ;   9.1741791785450441E-031 ;   1.1812411294084859     
          24 ;   3652.1998929256702      ;  -48444.931110757549      ;  -44792.731217831875      ;   99.787578781161912      ;   7.0224531018026809E-031 ;   1.1811445041859887     
          25 ;   3651.8609374622888      ;  -48428.703110608250      ;  -44776.842173145960      ;   99.778317638289622      ;   6.7142303380828319E-031 ;   1.1810474744438439     
          26 ;   3651.5206337943855      ;  -48411.793736366752      ;  -44760.273102572362      ;   99.769019658971501      ;   1.1064756552090288E-029 ;   1.1809500252074281     
          27 ;   3651.1789289847702      ;  -48394.201721449586      ;  -44743.022792464813      ;   99.759683396825608      ;   2.0874650068284063E-031 ;   1.1808521420006699     
          28 ;   3650.8357710865139      ;  -48375.922879448990      ;  -44725.087108362473      ;   99.750307432527478      ;   3.9594203021953278E-030 ;   1.1807538099687052     
          29 ;   3650.4911092157349      ;  -48356.955738086268      ;  -44706.464628870533      ;   99.740890375796766      ;   1.5499458321499756E-029 ;   1.1806550153890840     
          30 ;   3650.1448936228717      ;  -48337.296165655629      ;  -44687.151272032759      ;   99.731430867346631      ;   1.1397278264035784E-030 ;   1.1805557442707777     
          31 ;   3649.7970757713038      ;  -48316.940189344270      ;  -44667.143113572965      ;   99.721927581031210      ;   6.9375536714970182E-030 ;   1.1804559835381294     
          32 ;   3649.4476084177013      ;  -48295.885789780528      ;  -44646.438181362828      ;   99.712379226039133      ;   1.1221730674262611E-030 ;   1.1803557200520265     
          33 ;   3649.0964456895663      ;  -48274.129063881439      ;  -44625.032618191872      ;   99.702784549015249      ;   1.0897430490419905E-029 ;   1.1802549415512356     
          34 ;   3648.7435431839090      ;  -48251.666531724040      ;  -44602.922988540129      ;   99.693142336755017      ;   2.3291737060436618E-030 ;   1.1801536359623370     
          35 ;   3648.3888580772646      ;  -48228.494115746391      ;  -44580.105257669129      ;   99.683451419209405      ;   2.6132396546393849E-029 ;   1.1800517910811554     
          36 ;   3648.0323492105890      ;  -48204.609959968198      ;  -44556.577610757609      ;   99.673710671807100      ;   9.1386575274335861E-030 ;   1.1799493966509089     
          37 ;   3647.6739772149203      ;  -48180.008033786769      ;  -44532.334056571846      ;   99.663919018886133      ;   2.6320778385371182E-030 ;   1.1798464415368437     
          38 ;   3647.3137046085890      ;  -48154.685815492012      ;  -44507.372110883422      ;   99.654075436349046      ;   7.1746380253423758E-030 ;   1.1797429159154293     
          39 ;   3646.9514959131266      ;  -48128.637896495777      ;  -44481.686400582650      ;   99.644178954832782      ;   6.7485272139923450E-030 ;   1.1796388111510663     
          40 ;   3646.5873178198490      ;  -48101.861105486169      ;  -44455.273787666316      ;   99.634228664257691      ;   8.1308334462472459E-030 ;   1.1795308326253153     
          41 ;   3646.2211392892946      ;  -48074.352977038194      ;  -44428.131837748901      ;   99.624223716544563      ;   5.9941491729772595E-031 ;   1.1794254552037990     
          42 ;   3645.8529317000466      ;  -48046.109196513280      ;  -44400.256264813230      ;   99.614163329682839      ;   2.4068375575678599E-030 ;   1.1793194738468020     
          43 ;   3645.4826690234995      ;  -48017.123605252869      ;  -44371.640936229371      ;   99.604046792502828      ;   2.7563349285677514E-030 ;   1.1792103999445904     
          44 ;   3645.1103279665531      ;  -47987.395885793143      ;  -44342.285557826588      ;   99.593873468576888      ;   5.1199027316758695E-030 ;   1.1791031353967873     
          45 ;   3644.7358881257878      ;  -47956.917488092266      ;  -44312.181599966476      ;   99.583642800429999      ;   2.3967846787964168E-030 ;   1.1789952501635204     
          46 ;   3644.3593321634698      ;  -47925.685971218925      ;  -44281.326639055456      ;   99.573354314351604      ;   6.3561595406693251E-030 ;   1.1788867410882462     
          47 ;   3643.9806460313089      ;  -47893.696306190883      ;  -44249.715660159571      ;   99.563007626504756      ;   4.2142549140795732E-030 ;   1.1787776059147406     
          48 ;   3643.5998191433582      ;  -47860.945234797313      ;  -44217.345415653952      ;   99.552602447654564      ;   1.2092842790068772E-030 ;   1.1786678421535912     
          49 ;   3643.2168445667521      ;  -47827.428204940079      ;  -44184.211360373331      ;   99.542138588376602      ;   6.3883608779891427E-030 ;   1.1785574499755205     
          50 ;   3642.8317193796101      ;  -47793.140146494508      ;  -44150.308427114898      ;   99.531615968837698      ;   1.7760233774785962E-030 ;   1.1784464307271654     
          51 ;   3642.4444446036023      ;  -47758.078551958912      ;  -44115.634107355312      ;   99.521034616953017      ;   5.6423882398698908E-031 ;   1.1783347858807109     
          52 ;   3642.0550257547548      ;  -47722.239131777256      ;  -44080.184106022498      ;   99.510394683434228      ;   3.2236685663653007E-030 ;   1.1782225189872142     
          53 ;   3641.6634726382472      ;  -47685.616336793319      ;  -44043.952864155071      ;   99.499696436184223      ;   1.9404074424602701E-031 ;   1.1781096354155929     
          54 ;   3641.2697995857816      ;  -47648.205414605953      ;  -44006.935615020171      ;   99.488940266782578      ;   4.0969935201981002E-030 ;   1.1779961412953115     
          55 ;   3640.8740271747602      ;  -47610.002164993683      ;  -43969.128137818923      ;   99.478126737457373      ;   1.5100241840511677E-031 ;   1.1778820449452800     
          56 ;   3640.4761805442322      ;  -47571.003463578869      ;  -43930.527283034637      ;   99.467256535072096      ;   8.7357857423699854E-031 ;   1.1777673559388355     
          57 ;   3640.0762898935764      ;  -47531.204452333695      ;  -43891.128162440116      ;   99.456330484752698      ;   2.4337720444938089E-030 ;   1.1776520856488413     
          58 ;   3639.6743922106662      ;  -47490.603164487504      ;  -43850.928772276835      ;   99.445349597104169      ;   6.8705989415401281E-030 ;   1.1775362470264750     
          59 ;   3639.2705311790478      ;  -47449.194392903555      ;  -43809.923861724506      ;   99.434315065673559      ;   8.2786878013852402E-031 ;   1.1774198560533948     
          60 ;   3638.8647566385289      ;  -47406.976099764441      ;  -43768.111343125915      ;   99.423228252214003      ;   1.0011687647546505E-029 ;   1.1773029302742604     
          61 ;   3638.4571249424962      ;  -47363.939707037498      ;  -43725.482582094999      ;   99.412090696446342      ;   2.1628431044597596E-029 ;   1.1771795634623823     
          62 ;   3638.0477003613578      ;  -47320.085980034441      ;  -43682.038279673085      ;   99.400904154405438      ;   2.3438329654063725E-030 ;   1.1770614954447303     
          63 ;   3637.6365538950818      ;  -47275.410449220035      ;  -43637.773895324950      ;   99.389670565993839      ;   1.6594383046749871E-030 ;   1.1769429576172712     
          64 ;   3637.2237656969910      ;  -47229.909574379679      ;  -43592.685808682691      ;   99.378392121208492      ;   4.3155509035167108E-030 ;   1.1768239758899905     
          65 ;   3636.8094231856271      ;  -47183.579732563216      ;  -43546.770309377585      ;   99.367071208551025      ;   9.0558895652748810E-030 ;   1.1767045804923839     
          66 ;   3636.3936222154794      ;  -47136.416213913210      ;  -43500.022591697729      ;   99.355710447014857      ;   3.0651219976869434E-030 ;   1.1765848025867214     
          67 ;   3635.9764686899853      ;  -47088.418872047521      ;  -43452.442403357534      ;   99.344312730156418      ;   5.8248163398586497E-030 ;   1.1764591615607423     
          68 ;   3635.5580769609246      ;  -47039.583438022994      ;  -43404.025361062071      ;   99.332881182363849      ;   5.0900811991487872E-030 ;   1.1763385651825833     
          69 ;   3635.1385720118296      ;  -46989.913827216340      ;  -43354.775255204513      ;   99.321419218510755      ;   5.8411653451643365E-030 ;   1.1762176975406617     
          70 ;   3634.7180900610974      ;  -46939.402196800846      ;  -43304.684106739747      ;   99.309930560437522      ;   1.7440271556606745E-029 ;   1.1760966030048503     
          71 ;   3634.2967782370679      ;  -46888.051492128820      ;  -43253.754713891751      ;   99.298419228072731      ;   1.0881329821759996E-030 ;   1.1759753302820950     
          72 ;   3633.8747922831872      ;  -46835.853708418115      ;  -43201.978916134925      ;   99.286889476730096      ;   7.5360027177554192E-031 ;   1.1758514476856567     
          73 ;   3633.4522991668227      ;  -46782.809108762725      ;  -43149.356809595905      ;   99.275345868393103      ;   9.3990030993507421E-031 ;   1.1757299157490408     
          74 ;   3633.0294785675715      ;  -46728.923182527229      ;  -43095.893703959657      ;   99.263793312373210      ;   7.9688682858706201E-030 ;   1.1756083667573336     
          75 ;   3632.6065228350189      ;  -46674.188233029068      ;  -43041.581710194048      ;   99.252237064160994      ;   4.3614773317104387E-030 ;   1.1754868635888909     
          76 ;   3632.1836373208580      ;  -46618.607215696684      ;  -42986.423578375827      ;   99.240682734497554      ;   4.2343923741729854E-030 ;   1.1753654726297340     
          77 ;   3631.7610404002708      ;  -46562.183266418302      ;  -42930.422226018032      ;   99.229136289959015      ;   1.6169396619191791E-029 ;   1.1752442641673864     
          78 ;   3631.3389628734935      ;  -46504.914348080194      ;  -42873.575385206699      ;   99.217604036608236      ;   1.2528839513424151E-029 ;   1.1751233124864418     
          79 ;   3630.9176480069109      ;  -46446.800194090174      ;  -42815.882546083260      ;   99.206092621112020      ;   3.8147425426199273E-030 ;   1.1750026959793685     
          80 ;   3630.4973535219660      ;  -46387.846426776807      ;  -42757.349073254838      ;   99.194609085090704      ;   1.5643686961609388E-030 ;   1.1748824964570082     
          81 ;   3630.0783534830657      ;  -46328.058705465257      ;  -42697.980351982194      ;   99.183160916694305      ;   3.2636634473558214E-030 ;   1.1747628015637650     
          82 ;   3629.6609343887903      ;  -46267.436096387988      ;  -42637.775161999198      ;   99.171755943808051      ;   7.6222780387538616E-030 ;   1.1746437030913603     
          83 ;   3629.2453967691672      ;  -46205.983127617757      ;  -42576.737730848588      ;   99.160402377691639      ;   3.5413830737123025E-030 ;   1.1745252960873787     
          84 ;   3628.8320559091635      ;  -46143.701886348339      ;  -42514.869830439173      ;   99.149108832748922      ;   2.9128303422271477E-031 ;   1.1744076830170334     
          85 ;   3628.4212425920432      ;  -46080.597937802966      ;  -42452.176695210925      ;   99.137884346836998      ;   3.6529718245531887E-030 ;   1.1742909685863374     
          86 ;   3628.0133032080421      ;  -46016.681383538271      ;  -42388.668080330230      ;   99.126738384235594      ;   6.9953505913589504E-030 ;   1.1741752615086491     
          87 ;   3627.6085977569801      ;  -45951.955359617124      ;  -42324.346761860143      ;   99.115680781074204      ;   8.3349851906073447E-030 ;   1.1740606762307191     
          88 ;   3627.2075002484426      ;  -45886.423753586976      ;  -42259.216253338534      ;   99.104721756265874      ;   2.5327727692729441E-030 ;   1.1739473329554748     
          89 ;   3626.8104015011240      ;  -45820.099425652472      ;  -42193.289024151345      ;   99.093871987990966      ;   4.4099050911405810E-030 ;   1.1738353546653009     
          90 ;   3626.4177064152609      ;  -45752.984013703302      ;  -42126.566307288042      ;   99.083142539174830      ;   1.2476582085890601E-029 ;   1.1737248700434564     
          91 ;   3626.0298329692932      ;  -45685.098680770170      ;  -42059.068847800874      ;   99.072544830072928      ;   5.5421342075933380E-030 ;   1.1736160103602158     
          92 ;   3625.6472136273051      ;  -45616.444718338229      ;  -41990.797504710921      ;   99.062090676726669      ;   2.3593460801298865E-031 ;   1.1735089136146060     
          93 ;   3625.2702947398911      ;  -45547.042229138540      ;  -41921.771934398646      ;   99.051792274592259      ;   6.2891097030608613E-031 ;   1.1733962588012805     
          94 ;   3624.8995361068582      ;  -45476.893550589004      ;  -41851.994014482145      ;   99.041662186594081      ;   4.4573373904842409E-030 ;   1.1732929768027047     
          95 ;   3624.5354079628405      ;  -45406.018853933856      ;  -41781.483445971018      ;   99.031713260762231      ;   1.3231302514451355E-030 ;   1.1731918898161808     
          96 ;   3624.1783946941441      ;  -45334.434928518604      ;  -41710.256533824460      ;   99.021958731788175      ;   3.4158441438887798E-032 ;   1.1730931515015790     
          97 ;   3623.8289900437612      ;  -45262.141120296619      ;  -41638.312130252860      ;   99.012412090010628      ;   4.4840256542677799E-030 ;   1.1729969157077187     
          98 ;   3623.4876969739271      ;  -45189.172594491552      ;  -41565.684897517625      ;   99.003087077664418      ;   4.5802798814197754E-030 ;   1.1728988452780258     
          99 ;   3623.1550309301656      ;  -45115.541233316711      ;  -41492.386202386544      ;   98.993997778057903      ;   1.7075426980897755E-030 ;   1.1728080088395607     
         100 ;   3622.8315127417309      ;  -45041.260465860272      ;  -41418.428953118542      ;   98.985158421597831      ;   6.2646617528477483E-030 ;   1.1727201578695192     
         101 ;   3622.5176691191837      ;  -44966.347592911581      ;  -41343.829923792400      ;   98.976583399384424      ;   3.3193975879302669E-030 ;   1.1726354577851905     
         102 ;   3622.2140350907130      ;  -44890.833275640121      ;  -41268.619240549408      ;   98.968287329775748      ;   8.1771033187383267E-030 ;   1.1725540745762588     
         103 ;   3621.9211486413756      ;  -44814.728004011529      ;  -41192.806855370152      ;   98.960284911919445      ;   2.3502199725854540E-030 ;   1.1724665484064969     
         104 ;   3621.6395519677130      ;  -44738.064084524682      ;  -41116.424532556972      ;   98.952590960032893      ;   1.6812200703889568E-030 ;   1.1723922128123530     
         105 ;   3621.3697868459635      ;  -44660.856736043628      ;  -41039.486949197664      ;   98.945220276848033      ;   8.1653733750441167E-030 ;   1.1723184229614780     
         106 ;   3621.1123955989342      ;  -44583.132241720145      ;  -40962.019846121213      ;   98.938187680031248      ;   1.1893262553494363E-029 ;   1.1722518695066910     
         107 ;   3620.8679206123743      ;  -44504.927702826069      ;  -40884.059782213692      ;   98.931507988969386      ;   5.1979596948265760E-030 ;   1.1721661765126068     
         108 ;   3620.6368971753700      ;  -44426.263110833403      ;  -40805.626213658034      ;   98.925195829149146      ;   1.5073759643306549E-030 ;   1.1721077953263894     
         109 ;   3620.4198568484981      ;  -44347.163618039216      ;  -40726.743761190715      ;   98.919265724184356      ;   1.0801914932695140E-030 ;   1.1720539100301886     
