 Step; Kinetic energy; Potential energy; Total energy; Calculated temperature; Mean momentum squared; Pressure; 
           1 ;   4574.6272600479861      ;  -39634.978581699012      ;  -35060.351321651026      ;   124.99068821252467      ;   1.1453984616159660E-029 ;   1.4802366580024582     
           2 ;   4574.2484922105969      ;  -39634.225462583519      ;  -35059.976970372925      ;   124.98033929227893      ;   3.3138010310109392E-030 ;   1.4800941354065635     
           3 ;   4573.8334892835364      ;  -39633.401140081842      ;  -35059.567650798308      ;   124.96900033535097      ;   1.1494973900484977E-029 ;   1.4799427732399446     
           4 ;   4573.3840777894638      ;  -39632.498516685373      ;  -35059.114438895907      ;   124.95672124707963      ;   8.1375374789315764E-030 ;   1.4797610393976246     
           5 ;   4572.9021881918961      ;  -39631.532457420122      ;  -35058.630269228226      ;   124.94355477273795      ;   1.4955050499617771E-029 ;   1.4796073507736316     
           6 ;   4572.3898474888047      ;  -39630.509326325388      ;  -35058.119478836583      ;   124.92955629517031      ;   2.6702857524297190E-030 ;   1.4794437453290352     
           7 ;   4571.8491776777646      ;  -39629.430036043850      ;  -35057.580858366084      ;   124.91478379285839      ;   1.3843841230914702E-029 ;   1.4792709019073946     
           8 ;   4571.2823954763244      ;  -39628.287500238068      ;  -35057.005104761745      ;   124.89929783227630      ;   2.2741067984825968E-029 ;   1.4790895377890980     
           9 ;   4570.6918121191356      ;  -39627.111687230470      ;  -35056.419875111336      ;   124.88316156235413      ;   6.2575677787919612E-030 ;   1.4789003950588049     
          10 ;   4570.0798295001350      ;  -39625.880264374558      ;  -35055.800434874422      ;   124.86644060906657      ;   1.1289566735124093E-029 ;   1.4786889414184095     
          11 ;   4569.4489328800719      ;  -39624.616632194899      ;  -35055.167699314828      ;   124.84920287618669      ;   4.3975199614021897E-030 ;   1.4784752464004594     
          12 ;   4568.8016891260713      ;  -39623.318505993870      ;  -35054.516816867799      ;   124.83151849718654      ;   1.9111654325567828E-029 ;   1.4782519930021056     
          13 ;   4568.1407446111498      ;  -39621.991944661466      ;  -35053.851200050318      ;   124.81345977784285      ;   3.4569988098526696E-029 ;   1.4780409071106897     
          14 ;   4567.4688147411161      ;  -39620.643145718095      ;  -35053.174330976981      ;   124.79510091009004      ;   1.5057296508818973E-029 ;   1.4778117986218033     
          15 ;   4566.7886784262437      ;  -39619.281509324144      ;  -35052.492830897900      ;   124.77651782096783      ;   1.9859570330034257E-029 ;   1.4775944221244794     
          16 ;   4566.1031753379684      ;  -39617.914253501687      ;  -35051.811078163722      ;   124.75778809766894      ;   2.2182792410592711E-029 ;   1.4773542165473623     
          17 ;   4565.4151946242728      ;  -39616.538711341098      ;  -35051.123516716827      ;   124.73899067921462      ;   4.3190762271350791E-030 ;   1.4771541365337713     
          18 ;   4564.7276668467257      ;  -39615.167141820501      ;  -35050.439474973777      ;   124.72020563615042      ;   3.6551098445605871E-029 ;   1.4769530707294827     
          19 ;   4564.0435550647053      ;  -39613.805469699320      ;  -35049.761914634611      ;   124.70151392694908      ;   1.0069425389314123E-029 ;   1.4767310941720875     
          20 ;   4563.3658448982860      ;  -39612.450456165825      ;  -35049.084611267535      ;   124.68299712649859      ;   1.3142408562779557E-030 ;   1.4765096376561124     
          21 ;   4562.6975358205254      ;  -39611.113731591846      ;  -35048.416195771322      ;   124.66473718818662      ;   2.0629215262630446E-029 ;   1.4762974972639267     
          22 ;   4562.0416312488614      ;  -39609.802582918768      ;  -35047.760951669909      ;   124.64681617317224      ;   4.2898707808398637E-030 ;   1.4760879330144394     
          23 ;   4561.4011242589977      ;  -39608.522231621682      ;  -35047.121107362684      ;   124.62931586005050      ;   1.0108745270166385E-029 ;   1.4758845444246973     
          24 ;   4560.7789872988324      ;  -39607.268128524745      ;  -35046.489141225917      ;   124.61231746381073      ;   1.4950486653281794E-029 ;   1.4756958060506846     
          25 ;   4560.1781644064813      ;  -39606.065617508706      ;  -35045.887453102223      ;   124.59590142321584      ;   1.8391941438424186E-029 ;   1.4755050614012508     
          26 ;   4559.6015541219786      ;  -39604.914868339969      ;  -35045.313314217987      ;   124.58014693390001      ;   7.6497707547569709E-030 ;   1.4753241920746654     
          27 ;   4559.0519983140939      ;  -39603.820793996099      ;  -35044.768795682008      ;   124.56513164309440      ;   1.1157767872511509E-029 ;   1.4751498451834513     
          28 ;   4558.5322742521093      ;  -39602.783573914610      ;  -35044.251299662501      ;   124.55093143300182      ;   6.6053270574593258E-030 ;   1.4749849726644304     
          29 ;   4558.0450810530947      ;  -39601.800420256812      ;  -35043.755339203715      ;   124.53762005050527      ;   8.0007541828127157E-030 ;   1.4748304411026616     
          30 ;   4557.5930284094911      ;  -39600.896260876900      ;  -35043.303232467406      ;   124.52526879917420      ;   7.6889977075080056E-030 ;   1.4746636633874883     
          31 ;   4557.1786245807962      ;  -39600.063832013722      ;  -35042.885207432926      ;   124.51394621116835      ;   3.3345051741949835E-030 ;   1.4745326895653326     
          32 ;   4556.8042662957914      ;  -39599.305108760876      ;  -35042.500842465088      ;   124.50371777133722      ;   4.2128327905006106E-030 ;   1.4744144823998779     
          33 ;   4556.4722298125562      ;  -39598.643331805826      ;  -35042.171101993270      ;   124.49464567295833      ;   3.0412859743971154E-029 ;   1.4742971882420566     
          34 ;   4556.1846579621842      ;  -39598.065898446723      ;  -35041.881240484538      ;   124.48678846373744      ;   1.1274885283976015E-029 ;   1.4741985253397021     
          35 ;   4555.9435507285780      ;  -39597.577316250885      ;  -35041.633765522303      ;   124.48020078842572      ;   3.8874906862359526E-029 ;   1.4741228308056571     
          36 ;   4555.7507599248383      ;  -39597.192551055814      ;  -35041.441791130972      ;   124.47493324336234      ;   2.2168110232927852E-029 ;   1.4740625670490741     
          37 ;   4555.6079892580028      ;  -39596.909639790523      ;  -35041.301650532521      ;   124.47103237824489      ;   2.6912540637207099E-029 ;   1.4740182814486487     
          38 ;   4555.5167801611242      ;  -39596.730638839232      ;  -35041.213858678107      ;   124.46854030902421      ;   1.4576941048393322E-030 ;   1.4739904704221292     
          39 ;   4555.4785066857530      ;  -39596.649852254428      ;  -35041.171345568677      ;   124.46749457835509      ;   8.1961702893756808E-030 ;   1.4739795742440795     
          40 ;   4555.4943763365736      ;  -39596.683005378640      ;  -35041.188629042066      ;   124.46792817839827      ;   1.8362537058624427E-029 ;   1.4739826659430613     
          41 ;   4555.5654226821180      ;  -39596.826788315266      ;  -35041.261365633145      ;   124.46986934892836      ;   2.2618174368655826E-029 ;   1.4740065504148783     
          42 ;   4555.6925078880522      ;  -39597.078063422850      ;  -35041.385555534798      ;   124.47334164654906      ;   6.9106796836049880E-030 ;   1.4740483445609711     
          43 ;   4555.8763160793042      ;  -39597.446133739293      ;  -35041.569817659991      ;   124.47836376332924      ;   8.8189019042086243E-031 ;   1.4741082688470606     
          44 ;   4556.1173562531094      ;  -39597.926898243095      ;  -35041.809541989984      ;   124.48494960639269      ;   3.6207736574884236E-030 ;   1.4741864859337599     
          45 ;   4556.4159703232435      ;  -39598.524880399142      ;  -35042.108910075898      ;   124.49310851771290      ;   1.8868895743554355E-030 ;   1.4742831068258535     
          46 ;   4556.7723293380486      ;  -39599.237859948327      ;  -35042.465530610280      ;   124.50284517077331      ;   4.3799282161159266E-030 ;   1.4743981819622918     
          47 ;   4557.1864381806026      ;  -39600.060982811454      ;  -35042.874544630853      ;   124.51415969899196      ;   4.6844557833841781E-030 ;   1.4745660505604434     
          48 ;   4557.6581385053696      ;  -39601.000334002572      ;  -35043.342195497200      ;   124.52704777595940      ;   2.9283354256378624E-029 ;   1.4747180925926100     
          49 ;   4558.1871158544473      ;  -39602.054000799864      ;  -35043.866884945419      ;   124.54150080986780      ;   1.1300512833256575E-029 ;   1.4748882436433368     
          50 ;   4558.7729046462355      ;  -39603.230524712271      ;  -35044.457620066038      ;   124.55750607982129      ;   3.9697437093979173E-030 ;   1.4750769203906855     
          51 ;   4559.4148963754451      ;  -39604.514604651049      ;  -35045.099708275608      ;   124.57504695987527      ;   8.0123938402849107E-030 ;   1.4752835395801935     
          52 ;   4560.1123455815414      ;  -39605.910130220007      ;  -35045.797784638467      ;   124.59410308211382      ;   1.1569673563535098E-029 ;   1.4755078610800720     
          53 ;   4560.8643757706286      ;  -39607.408173439937      ;  -35046.543797669307      ;   124.61465049844902      ;   5.2903922455597758E-030 ;   1.4757495972097987     
          54 ;   4561.6699822270857      ;  -39609.030024962776      ;  -35047.360042735687      ;   124.63666175744325      ;   8.9512978315227592E-030 ;   1.4760084287012953     
          55 ;   4562.5280419039545      ;  -39610.748091469548      ;  -35048.220049565592      ;   124.66010617453811      ;   1.5865591671934565E-029 ;   1.4762839884262589     
          56 ;   4563.4373319403749      ;  -39612.570169597529      ;  -35049.132837657155      ;   124.68495033800258      ;   1.7386926269261330E-029 ;   1.4765795851925809     
          57 ;   4564.3965289278103      ;  -39614.494629214802      ;  -35050.098100286988      ;   124.71115808888017      ;   1.2757478571997598E-029 ;   1.4768876727491700     
          58 ;   4565.4042176166276      ;  -39616.501235826465      ;  -35051.097018209839      ;   124.73869075887930      ;   1.5049834785177098E-029 ;   1.4772112145387635     
          59 ;   4566.4588993965917      ;  -39618.607725147187      ;  -35052.148825750599      ;   124.76750740207925      ;   5.3045384519798254E-030 ;   1.4775109068598440     
          60 ;   4567.5590002603476      ;  -39620.806596277063      ;  -35053.247596016714      ;   124.79756501251292      ;   4.5532727494202385E-029 ;   1.4778645028325859     
          61 ;   4568.7028798998672      ;  -39623.093033758065      ;  -35054.390153858199      ;   124.82881877270948      ;   1.2838036866384718E-029 ;   1.4782320449618982     
          62 ;   4569.8888372845004      ;  -39625.464400061304      ;  -35055.575562776801      ;   124.86122220609806      ;   3.0811498165276254E-030 ;   1.4786145642199247     
          63 ;   4571.1151163653258      ;  -39627.917695183904      ;  -35056.802578818577      ;   124.89472733286325      ;   4.5722052418010850E-030 ;   1.4790087141540560     
          64 ;   4572.3799162548075      ;  -39630.440100373358      ;  -35058.060184118549      ;   124.92928494808552      ;   1.7676324520808362E-029 ;   1.4793941247074733     
          65 ;   4573.6813968938422      ;  -39633.046364658265      ;  -35059.364967764421      ;   124.96484477657444      ;   6.0732459797851822E-030 ;   1.4798122922506973     
          66 ;   4575.0176827346777      ;  -39635.722498203526      ;  -35060.704815468845      ;   125.00135557349812      ;   9.7147628802699645E-030 ;   1.4802403841452700     
          67 ;   4576.3868692173919      ;  -39638.459057603664      ;  -35062.072188386272      ;   125.03876530133812      ;   2.3711757712760348E-030 ;   1.4806801171039425     
          68 ;   4577.7870303047002      ;  -39641.258081954642      ;  -35063.471051649940      ;   125.07702133575607      ;   5.2606864554120755E-029 ;   1.4811366365860485     
          69 ;   4579.2162265346014      ;  -39644.112876516949      ;  -35064.896649982344      ;   125.11607068561808      ;   1.3496256646510128E-029 ;   1.4815955753268346     
          70 ;   4580.6725047487562      ;  -39647.021063140506      ;  -35066.348558391750      ;   125.15585998556978      ;   1.5076661087149379E-030 ;   1.4820630844845319     
          71 ;   4582.1539023063342      ;  -39649.984866583894      ;  -35067.830964277557      ;   125.19633561117008      ;   1.0424984552162295E-029 ;   1.4825385308011401     
          72 ;   4583.6584563195447      ;  -39653.005988109231      ;  -35069.347531789688      ;   125.23744393123036      ;   1.9716530139287428E-030 ;   1.4830299230724577     
          73 ;   4585.1842105915957      ;  -39656.052870862637      ;  -35070.868660271044      ;   125.27913149737900      ;   1.6555814252157130E-030 ;   1.4835195497149349     
          74 ;   4586.7292121491773      ;  -39659.153093704343      ;  -35072.423881555165      ;   125.32134494931638      ;   6.6227325667730003E-030 ;   1.4840152246448792     
          75 ;   4588.2915155843057      ;  -39662.273582866968      ;  -35073.982067282661      ;   125.36403113344699      ;   2.0066705944868552E-030 ;   1.4845163223367217     
          76 ;   4589.8691895118081      ;  -39665.430440976721      ;  -35075.561251464911      ;   125.40713727931715      ;   2.3618637447845190E-029 ;   1.4850222169851750     
          77 ;   4591.4603204270570      ;  -39668.609092379258      ;  -35077.148771952197      ;   125.45061110501406      ;   2.5790089908275828E-029 ;   1.4855386866476235     
          78 ;   4593.0630156161533      ;  -39671.814963475132      ;  -35078.751947858982      ;   125.49440089668370      ;   2.5464682710996979E-030 ;   1.4860647572447643     
          79 ;   4594.6754041476270      ;  -39675.040986785250      ;  -35080.365582637620      ;   125.53845553562063      ;   8.6759339688581985E-031 ;   1.4865815524092116     
          80 ;   4596.2956406780795      ;  -39678.284498156798      ;  -35081.988857478718      ;   125.58272460225635      ;   3.3568896186038272E-030 ;   1.4871007274158032     
          81 ;   4597.9219127379547      ;  -39681.536999186224      ;  -35083.615086448270      ;   125.62715857521849      ;   4.9137573437368553E-030 ;   1.4876216978357883     
          82 ;   4599.5524422383660      ;  -39684.795708517908      ;  -35085.243266279540      ;   125.67170887250468      ;   6.3359149946852786E-030 ;   1.4881438907073490     
          83 ;   4601.1854823739341      ;  -39688.060966672667      ;  -35086.875484298733      ;   125.71632776685806      ;   5.0734050136146359E-030 ;   1.4886667466488224     
          84 ;   4602.8193275018457      ;  -39691.330390212053      ;  -35088.511062710211      ;   125.76096865569154      ;   6.6450263162941377E-030 ;   1.4891897167272685     
          85 ;   4604.4523130873422      ;  -39694.587595331272      ;  -35090.135282243929      ;   125.80558605959578      ;   5.8276655116445401E-030 ;   1.4897122658337092     
          86 ;   4606.0828165853873      ;  -39697.855702473171      ;  -35091.772885887782      ;   125.85013564642897      ;   1.2934349365613514E-029 ;   1.4902235919912061     
          87 ;   4607.7092618098768      ;  -39701.112100809158      ;  -35093.402838999282      ;   125.89457435069836      ;   1.0393188844117249E-029 ;   1.4907438618191429     
          88 ;   4609.3301200074229      ;  -39704.356551005461      ;  -35095.026430998041      ;   125.93886040289202      ;   9.1816768124106061E-030 ;   1.4912621940081250     
          89 ;   4610.9439174451345      ;  -39707.580986991969      ;  -35096.637069546836      ;   125.98295353680392      ;   1.3749493351357937E-029 ;   1.4917772515481871     
          90 ;   4612.5492333871007      ;  -39710.788707983862      ;  -35098.239474596761      ;   126.02681493424201      ;   5.4454538455827001E-030 ;   1.4922905802139392     
          91 ;   4614.1447007637162      ;  -39713.979795569496      ;  -35099.835094805778      ;   126.07040724331787      ;   7.4576276403562726E-030 ;   1.4928006052373688     
          92 ;   4615.7290117878911      ;  -39717.153682908072      ;  -35101.424671120185      ;   126.11369473189245      ;   5.0206921467448936E-030 ;   1.4933069044701259     
          93 ;   4617.3009213156438      ;  -39720.294569515638      ;  -35102.993648199990      ;   126.15664337940261      ;   1.2487099564920796E-029 ;   1.4938391392632955     
          94 ;   4618.8592486603593      ;  -39723.413145729530      ;  -35104.553897069170      ;   126.19922092642544      ;   1.3481629089697941E-029 ;   1.4943255563152924     
          95 ;   4620.4028768540011      ;  -39726.506153002876      ;  -35106.103276148875      ;   126.24139685449542      ;   3.4285317615728743E-030 ;   1.4948189553722637     
          96 ;   4621.9307533666233      ;  -39729.562017928867      ;  -35107.631264562246      ;   126.28314240576324      ;   1.5752601734407459E-030 ;   1.4953267465674895     
          97 ;   4623.4418944457911      ;  -39732.581332157184      ;  -35109.139437711390      ;   126.32443070156023      ;   2.2871649353916181E-029 ;   1.4957831558719683     
          98 ;   4624.9353858685154      ;  -39735.563803341807      ;  -35110.628417473294      ;   126.36523676294033      ;   1.8346247033272112E-029 ;   1.4962795199976466     
          99 ;   4626.4103887489091      ;  -39738.519271947822      ;  -35112.108883198911      ;   126.40553766936550      ;   7.0818225342176286E-030 ;   1.4967616586503856     
         100 ;   4627.8661375950924      ;  -39741.426238363405      ;  -35113.560100768314      ;   126.44531250561008      ;   6.8643399499205366E-030 ;   1.4972272902542838     
         101 ;   4629.3019380935038      ;  -39744.295599391015      ;  -35114.993661297514      ;   126.48454230122630      ;   5.6513645528630929E-030 ;   1.4976863783631655     
         102 ;   4630.7171727915102      ;  -39747.123057134988      ;  -35116.405884343476      ;   126.52321018580579      ;   4.8927004756227469E-030 ;   1.4981476555640680     
         103 ;   4632.1112981617462      ;  -39749.903677464397      ;  -35117.792379302649      ;   126.56130130877034      ;   4.0632932466612775E-030 ;   1.4985932622553646     
         104 ;   4633.4838456158777      ;  -39752.644715886607      ;  -35119.160870270731      ;   126.59880286707090      ;   4.7830695141383515E-031 ;   1.4990318136714960     
         105 ;   4634.8344230564153      ;  -39755.344109441874      ;  -35120.509686385456      ;   126.63570414758667      ;   3.3072988378982838E-030 ;   1.4994311063913708     
         106 ;   4636.1627177646251      ;  -39757.998418469899      ;  -35121.835700705276      ;   126.67199660602978      ;   6.1410716217355276E-030 ;   1.4998560936398913     
         107 ;   4637.4684923002342      ;  -39760.606396620969      ;  -35123.137904320734      ;   126.70767375491624      ;   2.7387223124357261E-030 ;   1.5002737353617270     
         108 ;   4638.7515786219146      ;  -39763.170521568594      ;  -35124.418942946679      ;   126.74273100292082      ;   1.6655502278324598E-029 ;   1.5006588424896579     
         109 ;   4640.0118892518212      ;  -39765.687293537841      ;  -35125.675404286019      ;   126.77716595992032      ;   3.0571267481897005E-029 ;   1.5010620305216784     
