 Step; Kinetic energy; Potential energy; Total energy; Calculated temperature; Mean momentum squared; Pressure; 
           1 ;   938.19649725828265      ;  -48635.495152382733      ;  -47697.298655124454      ;   25.633962988639880      ;   8.8540616839152365E-032 ;  0.30334647528660408     
           2 ;   938.07567169385902      ;  -48635.252987197993      ;  -47697.177315504137      ;   25.630661720669291      ;   1.9878985236163621E-031 ;  0.30331377873605952     
           3 ;   937.87300802226980      ;  -48634.846632381057      ;  -47696.973624358790      ;   25.625124423235434      ;   1.4055068191988195E-031 ;  0.30325461472581661     
           4 ;   937.58853860191221      ;  -48634.277432605770      ;  -47696.688894003855      ;   25.617351980453851      ;   6.4619308734888935E-031 ;  0.30316899381622547     
           5 ;   937.22230897280394      ;  -48633.544454982111      ;  -47696.322146009305      ;   25.607345636595795      ;   3.7922262354149938E-031 ;  0.30305693064528394     
           6 ;   936.77437787427596      ;  -48632.647560993712      ;  -47695.873183119438      ;   25.595106996572511      ;   5.2965915141974680E-031 ;  0.30291844414370100     
           7 ;   936.24481726623776      ;  -48631.588174515593      ;  -47695.343357249352      ;   25.580638026515185      ;   1.3383872524909457E-030 ;  0.30275355772045526     
           8 ;   935.63371235398574      ;  -48630.365697978821      ;  -47694.731985624836      ;   25.563941054453757      ;   2.0331928822089999E-031 ;  0.30256229857919964     
           9 ;   934.94116161693591      ;  -48628.980328336867      ;  -47694.039166719929      ;   25.545018771101482      ;   1.0511879525929540E-030 ;  0.30234469879179071     
          10 ;   934.16727684060515      ;  -48627.431521180202      ;  -47693.264244339596      ;   25.523874230728509      ;   2.2175962162129103E-031 ;  0.30210079462868317     
          11 ;   933.31218315193382      ;  -48625.721574691030      ;  -47692.409391539099      ;   25.500510852127999      ;   1.1209652662982430E-030 ;  0.30183062632713642     
          12 ;   932.37601905839711      ;  -48623.848717943278      ;  -47691.472698884878      ;   25.474932419683270      ;   1.4274982180281350E-030 ;  0.30153423880810298     
          13 ;   931.35893649049331      ;  -48621.814278758160      ;  -47690.455342267669      ;   25.447143084529849      ;   4.9384821453474899E-031 ;  0.30121168086626049     
          14 ;   930.26110084767333      ;  -48619.618843918506      ;  -47689.357743070832      ;   25.417147365810049      ;   1.8631709479218456E-031 ;  0.30086300640478902     
          15 ;   929.08269104676447      ;  -48617.262771250294      ;  -47688.180080203529      ;   25.384950151995866      ;   1.1837257488206890E-030 ;  0.30048827257366367     
          16 ;   927.82389957418673      ;  -48614.745677742416      ;  -47686.921778168231      ;   25.350556702315831      ;   9.3661863362688613E-031 ;  0.30008754249125386     
          17 ;   926.48493254147479      ;  -48612.067207633096      ;  -47685.582275091620      ;   25.313972648271875      ;   4.4360850573640370E-031 ;  0.29966088200822666     
          18 ;   925.06600974347725      ;  -48609.228056494452      ;  -47684.162046750978      ;   25.275203995229621      ;   3.3411162292428531E-030 ;  0.29920836240689369     
          19 ;   923.56736471989984      ;  -48606.229459371432      ;  -47682.662094651532      ;   25.234257124100093      ;   1.7448817144218181E-030 ;  0.29873005927903112     
          20 ;   913.42302795637852      ;  -48603.087491001163      ;  -47689.664463044784      ;   24.957087518478676      ;   2.4434863416768213E-031 ;  0.29545637090073334     
          21 ;   913.34311455238890      ;  -48599.786718244373      ;  -47686.443603691987      ;   24.954904076900970      ;   8.0102629665607760E-031 ;  0.29543673699194317     
          22 ;   913.26319172275475      ;  -48596.326098270627      ;  -47683.062906547872      ;   24.952720377790314      ;   1.9687113639866792E-030 ;  0.29541709779836750     
          23 ;   913.18325933792335      ;  -48592.704587987690      ;  -47679.521328649767      ;   24.950536417606713      ;   1.7976421103497299E-030 ;  0.29539745354726371     
          24 ;   913.10331734747251      ;  -48588.923960116990      ;  -47675.820642769519      ;   24.948352194972678      ;   1.7076928600273332E-030 ;  0.29537780452535406     
          25 ;   913.02336578296604      ;  -48584.984707476906      ;  -47671.961341693939      ;   24.946167710750561      ;   6.7085156643951816E-031 ;  0.29535815110403651     
          26 ;   912.94340476344314      ;  -48580.884507218128      ;  -47667.941102454686      ;   24.943982968193009      ;   1.8105852091052957E-031 ;  0.29533849318312111     
          27 ;   912.86343450075094      ;  -48576.622828854117      ;  -47663.759394353365      ;   24.941797973088033      ;   2.0218143456012004E-030 ;  0.29531883138770892     
          28 ;   912.78345530298589      ;  -48572.200934461187      ;  -47659.417479158205      ;   24.939612733853586      ;   3.2862495662188897E-031 ;  0.29529916588923782     
          29 ;   912.70346757331504      ;  -48567.620086914583      ;  -47654.916619341268      ;   24.937427261505501      ;   3.3638625285447973E-031 ;  0.29527949685707366     
          30 ;   912.62347181988275      ;  -48562.878990192585      ;  -47650.255518372702      ;   24.935241569927239      ;   1.1412978993462601E-030 ;  0.29525982490201180     
          31 ;   912.54346866106084      ;  -48557.977885458007      ;  -47645.434416796947      ;   24.933055676014497      ;   3.3780679543385221E-031 ;  0.29524015018226546     
          32 ;   912.46345882495643      ;  -48552.916247353467      ;  -47640.452788528513      ;   24.930869599661314      ;   5.2119708021485035E-031 ;  0.29522047286209507     
          33 ;   912.38344315704649      ;  -48547.695088166351      ;  -47635.311645009308      ;   24.928683363967849      ;   1.0627472350181083E-030 ;  0.29520079435801599     
          34 ;   912.30342262374347      ;  -48542.313630170640      ;  -47630.010207546897      ;   24.926496995339352      ;   9.6609361764854327E-032 ;  0.29518111467372687     
          35 ;   912.22339831487648      ;  -48536.770841830170      ;  -47624.547443515294      ;   24.924310523552553      ;   1.3325152342566342E-030 ;  0.29516143437929154     
          36 ;   912.14337144967453      ;  -48531.070557887026      ;  -47618.927186437351      ;   24.922123981920070      ;   1.0730897628214828E-030 ;  0.29514053639880955     
          37 ;   912.06334338368708      ;  -48525.209448026988      ;  -47613.146104643303      ;   24.919937407479082      ;   2.8465372874302500E-030 ;  0.29512082266335732     
          38 ;   911.98331561332884      ;  -48519.187512816337      ;  -47607.204197203006      ;   24.917750841115399      ;   1.8010756616890265E-030 ;  0.29510111021258723     
          39 ;   911.90328977540435      ;  -48513.006036060877      ;  -47601.102746285469      ;   24.915564327550861      ;   5.2371028339596611E-031 ;  0.29508139953714729     
          40 ;   911.82326765882897      ;  -48506.666049149877      ;  -47594.842781491046      ;   24.913377915663130      ;   7.1606749424309707E-031 ;  0.29506169147402883     
          41 ;   911.74325120742606      ;  -48500.165003467642      ;  -47588.421752260219      ;   24.911191658562771      ;   4.9373884073543807E-031 ;  0.29504198678481747     
          42 ;   911.66324252075890      ;  -48493.501890556785      ;  -47581.838648036028      ;   24.909005613615051      ;   8.1714704772592179E-031 ;  0.29502228644952233     
          43 ;   911.58324386607569      ;  -48486.680570332057      ;  -47575.097326465984      ;   24.906819842767067      ;   4.1982505831962468E-031 ;  0.29500259115058713     
          44 ;   911.50325767596951      ;  -48479.698507783040      ;  -47568.195250107070      ;   24.904634412483897      ;   2.2367712438379072E-030 ;  0.29498290190066717     
          45 ;   911.42328656026461      ;  -48472.556756998165      ;  -47561.133470437897      ;   24.902449394072384      ;   2.9032294642209874E-031 ;  0.29496321978462015     
          46 ;   911.34333331154039      ;  -48465.256121663755      ;  -47553.912788352216      ;   24.900264863832980      ;   1.1597770477313626E-031 ;  0.29494354589040761     
          47 ;   911.26340090686699      ;  -48457.794851500577      ;  -47546.531450593713      ;   24.898080903107459      ;   1.1349065619620349E-031 ;  0.29492388148216087     
          48 ;   911.18349251346876      ;  -48450.172994505730      ;  -47538.989501992262      ;   24.895897598432079      ;   6.9088341741149398E-031 ;  0.29490422736828131     
          49 ;   911.10361149796688      ;  -48442.392909330381      ;  -47531.289297832416      ;   24.893715041791896      ;   1.5577370881183997E-030 ;  0.29488458473718709     
          50 ;   911.02376143020115      ;  -48434.450817964927      ;  -47523.427056534725      ;   24.891533330724169      ;   7.1568408739475045E-031 ;  0.29486495524861694     
          51 ;   910.94394608797336      ;  -48426.352421654214      ;  -47515.408475566241      ;   24.889352568448267      ;   6.2801860955579071E-031 ;  0.29484533949242558     
          52 ;   910.86416946987049      ;  -48418.094213944845      ;  -47507.230044474978      ;   24.887172864216016      ;   1.2700351211653926E-030 ;  0.29482573949081525     
          53 ;   910.78443578838710      ;  -48409.675256692673      ;  -47498.890820904286      ;   24.884994333123558      ;   2.1809360555115994E-031 ;  0.29480615655090525     
          54 ;   910.70474948528840      ;  -48401.096668604936      ;  -47490.391919119647      ;   24.882817096531511      ;   1.0383278790195116E-031 ;  0.29478659241136401     
          55 ;   910.62511523810838      ;  -48392.358553759856      ;  -47481.733438521747      ;   24.880641282242280      ;   2.0484426180869818E-030 ;  0.29476704853097963     
          56 ;   910.54553796887194      ;  -48383.459746131506      ;  -47472.914208162634      ;   24.878467024738352      ;   7.5869422768683460E-031 ;  0.29474561979974406     
          57 ;   910.46602284692040      ;  -48374.402673902980      ;  -47463.936651056058      ;   24.876294465259541      ;   9.6652609740322327E-031 ;  0.29472581735206338     
          58 ;   910.38657527699309      ;  -48365.187216155857      ;  -47454.800640878864      ;   24.874123751477214      ;   1.1385833643296298E-030 ;  0.29470630352983662     
          59 ;   910.30720094300591      ;  -48355.812495368911      ;  -47445.505294425908      ;   24.871955038690899      ;   1.3632123804965799E-030 ;  0.29468681680305170     
          60 ;   910.22790579723664      ;  -48346.280205831776      ;  -47436.052300034542      ;   24.869788489532155      ;   2.4748896993811352E-031 ;  0.29466735957270251     
          61 ;   910.14869605432909      ;  -48336.591286302544      ;  -47426.442590248218      ;   24.867624273801354      ;   1.7671764009844882E-030 ;  0.29464793329424843     
          62 ;   910.06957821532342      ;  -48326.743104645095      ;  -47416.673526429775      ;   24.865462569123629      ;   1.6578488221759817E-030 ;  0.29462854131439586     
          63 ;   909.99055907692014      ;  -48316.738162152367      ;  -47406.747603075448      ;   24.863303561202311      ;   5.2747167543352921E-031 ;  0.29460918485829413     
          64 ;   909.91164572257821      ;  -48306.573342469521      ;  -47396.661696746945      ;   24.861147443576257      ;   1.5129091326606779E-030 ;  0.29458986658039121     
          65 ;   909.83284553718772      ;  -48296.253223761370      ;  -47386.420378224182      ;   24.858994418019492      ;   1.9759704100858176E-030 ;  0.29457058893474408     
          66 ;   909.75416621862860      ;  -48285.772927899801      ;  -47376.018761681175      ;   24.856844694858260      ;   1.1824604249008005E-030 ;  0.29455135437285107     
          67 ;   909.67561578551818      ;  -48275.137576447887      ;  -47365.461960662367      ;   24.854698493182084      ;   3.5315855738459077E-031 ;  0.29453216580397451     
          68 ;   909.59720259095513      ;  -48264.344883947429      ;  -47354.747681356472      ;   24.852556041219117      ;   4.2795649834133863E-031 ;  0.29451302528041862     
          69 ;   909.51893530612517      ;  -48253.397702096277      ;  -47343.878766790149      ;   24.850417575888560      ;   2.7250868885933916E-031 ;  0.29449393647574557     
          70 ;   909.44082292576195      ;  -48242.291220850690      ;  -47332.850397924929      ;   24.848283342950047      ;   1.7764988538174256E-030 ;  0.29447490219640721     
          71 ;   909.36287480456804      ;  -48231.026536653124      ;  -47321.663661848557      ;   24.846153597998484      ;   2.0764416378569558E-030 ;  0.29445592480895610     
          72 ;   909.28510067450952      ;  -48219.606813366336      ;  -47310.321712691824      ;   24.844028606936103      ;   2.4455162543357553E-031 ;  0.29443700786632793     
          73 ;   909.20751061325814      ;  -48208.034211024940      ;  -47298.826700411679      ;   24.841908645111186      ;   1.2607276816366558E-030 ;  0.29441815453098613     
          74 ;   909.13011504986810      ;  -48196.306302703561      ;  -47287.176187653691      ;   24.839793997472729      ;   2.1733478766701431E-031 ;  0.29439936742419043     
          75 ;   909.05292480476555      ;  -48184.423754991032      ;  -47275.370830186264      ;   24.837684959662575      ;   2.0325776958672390E-031 ;  0.29438065135523983     
          76 ;   908.97595111876899      ;  -48172.388024920539      ;  -47263.412073801774      ;   24.835581838809205      ;   1.1736652911582606E-030 ;  0.29436200883279684     
          77 ;   908.89920559417897      ;  -48160.199056817546      ;  -47251.299851223368      ;   24.833484951917494      ;   3.8680226168282074E-031 ;  0.29434344431637544     
          78 ;   908.82270021523618      ;  -48147.856050980408      ;  -47239.033350765174      ;   24.831394626428150      ;   3.4696325156571425E-031 ;  0.29432496133086089     
          79 ;   908.74644740897270      ;  -48135.358744534286      ;  -47226.612297125313      ;   24.829311201879875      ;   6.1154500765382671E-031 ;  0.29430656366557073     
          80 ;   908.67045999688526      ;  -48122.709716185083      ;  -47214.039256188196      ;   24.827235028589175      ;   9.3519737278660330E-031 ;  0.29428825496735006     
          81 ;   908.59475122434696      ;  -48109.909267179493      ;  -47201.314515955150      ;   24.825166468453926      ;   2.9899218636439014E-031 ;  0.29427004028461262     
          82 ;   908.51933477073476      ;  -48096.960030075257      ;  -47188.440695304525      ;   24.823105895230544      ;   5.9130118199465791E-031 ;  0.29425192335950395     
          83 ;   908.44422473539748      ;  -48083.862617666600      ;  -47175.418392931206      ;   24.821053694149402      ;   1.0029079000102753E-030 ;  0.29423291172680643     
          84 ;   908.36943572747953      ;  -48070.614600042391      ;  -47162.245164314911      ;   24.819010264370583      ;   1.2386947031373143E-030 ;  0.29421498469075574     
          85 ;   908.29498278768926      ;  -48057.215625400670      ;  -47148.920642612982      ;   24.816976016845096      ;   2.9073722290663020E-030 ;  0.29419716884112168     
          86 ;   908.22088134993623      ;  -48043.668700637361      ;  -47135.447819287423      ;   24.814951373267380      ;   2.6820650920412756E-030 ;  0.29417946950083651     
          87 ;   908.14714735797179      ;  -48029.973536588528      ;  -47121.826389230555      ;   24.812936769262262      ;   1.1163117457067995E-030 ;  0.29416189162394418     
          88 ;   908.07379721590303      ;  -48016.135764818930      ;  -47108.061967603026      ;   24.810932653032410      ;   1.6437443698312657E-030 ;  0.29414443989461370     
          89 ;   908.00084780467637      ;  -48002.149274973854      ;  -47094.148427169181      ;   24.808939485808938      ;   5.6656564362179470E-031 ;  0.29412711978610900     
          90 ;   907.92831655470263      ;  -47988.016695299229      ;  -47080.088378744527      ;   24.806957743836076      ;   1.1860322590090645E-030 ;  0.29410993665994356     
          91 ;   907.85622132597587      ;  -47973.739921748682      ;  -47065.883700422703      ;   24.804987915095285      ;   9.8674296763857338E-031 ;  0.29409289652975001     
          92 ;   907.78458044625870      ;  -47959.322934931377      ;  -47051.538354485121      ;   24.803030500348498      ;   8.6890268332694408E-031 ;  0.29407600487809965     
          93 ;   907.71341281563423      ;  -47944.759513563957      ;  -47037.046100748325      ;   24.801086015994969      ;   1.2108718543993279E-030 ;  0.29405926817783173     
          94 ;   907.64273790193624      ;  -47930.058578609634      ;  -47022.415840707697      ;   24.799154993946622      ;   1.7684766782047114E-031 ;  0.29403929883091950     
          95 ;   907.57257546852861      ;  -47915.215011539221      ;  -47007.642436070695      ;   24.797237974189638      ;   6.9401681824899806E-031 ;  0.29402284620283931     
          96 ;   907.50294581933838      ;  -47900.231413659181      ;  -46992.728467839843      ;   24.795335511480133      ;   9.4816179026901610E-032 ;  0.29400656661034380     
          97 ;   907.43386996266986      ;  -47885.112988486289      ;  -46977.679118523622      ;   24.793448179819418      ;   5.5432240859660381E-032 ;  0.29399046621773806     
          98 ;   907.36536934294554      ;  -47869.854486615732      ;  -46962.489117272788      ;   24.791576565124803      ;   3.6986996247096564E-031 ;  0.29397455125520994     
          99 ;   907.29746589896479      ;  -47854.461454227450      ;  -46947.163988328488      ;   24.789721266821068      ;   1.9342379217952810E-031 ;  0.29395882882126351     
         100 ;   907.23018219553614      ;  -47838.935130966565      ;  -46931.704948771032      ;   24.787882901437694      ;   2.7480988355578389E-031 ;  0.29394330615422970     
         101 ;   907.16354132862625      ;  -47823.273986257533      ;  -46916.110444928905      ;   24.786062100016188      ;   1.0219447524506433E-030 ;  0.29392799044788359     
         102 ;   907.09756670336606      ;  -47807.482680591100      ;  -46900.385113887736      ;   24.784259502045419      ;   4.5115837320137284E-031 ;  0.29391126073883234     
         103 ;   907.03228229283650      ;  -47791.558498862971      ;  -46884.526216570135      ;   24.782475762532322      ;   7.0216750915948576E-031 ;  0.29389636538532288     
         104 ;   906.96771271979355      ;  -47775.504918379811      ;  -46868.537205660017      ;   24.780711554234294      ;   1.8738358866393206E-031 ;  0.29388169896407562     
         105 ;   906.90388322774754      ;  -47759.324699289660      ;  -46852.420816061909      ;   24.778967566869810      ;   1.8365237323365386E-030 ;  0.29386726836112409     
         106 ;   906.84081937309065      ;  -47743.018860607146      ;  -46836.178041234052      ;   24.777244498705553      ;   7.8431305876600049E-031 ;  0.29385127333852312     
         107 ;   906.77854716878937      ;  -47726.588986059782      ;  -46819.810438890992      ;   24.775543060483439      ;   1.1803364100007684E-030 ;  0.29383733168544329     
         108 ;   906.71709351096865      ;  -47710.039016509007      ;  -46803.321922998039      ;   24.773863987075380      ;   3.2635454959629452E-030 ;  0.29382364933536032     
         109 ;   906.65648551099662      ;  -47693.364755463059      ;  -46786.708269952062      ;   24.772208019234338      ;   1.6830012916575899E-030 ;  0.29380789222364928     
