 Step; Kinetic energy; Potential energy; Total energy; Calculated temperature; Mean momentum squared; Pressure; 
           1 ;   182.98245821675098      ;  -48334.176346464090      ;  -48151.193888247341      ;   4.9995556103714804      ;   1.7596824299045007E-031 ;   5.9356262151507341E-002
           2 ;   182.96556670806382      ;  -48334.142822281516      ;  -48151.177255573450      ;   4.9990940905195549      ;   3.8705492027786986E-031 ;   5.9350464502656561E-002
           3 ;   182.94802735671803      ;  -48334.113122120922      ;  -48151.165094764205      ;   4.9986148699249524      ;   3.1950490888789539E-031 ;   5.9347858857908463E-002
           4 ;   182.92981921587659      ;  -48334.074660485334      ;  -48151.144841269459      ;   4.9981173762658040      ;   8.8273902621116632E-032 ;   5.9346101437372789E-002
           5 ;   182.91092124086794      ;  -48334.038914961631      ;  -48151.127993720766      ;   4.9976010345470643      ;   3.9327344161030784E-032 ;   5.9340040709180107E-002
           6 ;   182.89131257543752      ;  -48334.004308132506      ;  -48151.112995557065      ;   4.9970652749216793      ;   1.3755029970062189E-031 ;   5.9334741732617408E-002
           7 ;   182.87097235477233      ;  -48333.959534381982      ;  -48151.088562027209      ;   4.9965095273088505      ;   2.4778872003008815E-031 ;   5.9327963521713670E-002
           8 ;   182.84987978648394      ;  -48333.915303970483      ;  -48151.065424184002      ;   4.9959332236065714      ;   5.8815820021707988E-031 ;   5.9322016824474751E-002
           9 ;   182.82801435173747      ;  -48333.874903467535      ;  -48151.046889115794      ;   4.9953358031870128      ;   6.9192989466229034E-031 ;   5.9317735380637907E-002
          10 ;   182.80535550724773      ;  -48333.831124399250      ;  -48151.025768892003      ;   4.9947167047543415      ;   9.3960547621519280E-032 ;   5.9309626311221018E-002
          11 ;   182.78188259682736      ;  -48333.788789046070      ;  -48151.006906449242      ;   4.9940753639278492      ;   5.6306774497999557E-031 ;   5.9301248034254773E-002
          12 ;   182.75757502954315      ;  -48333.739408790549      ;  -48150.981833761005      ;   4.9934112181098600      ;   6.3013178268921558E-031 ;   5.9296211030370312E-002
          13 ;   182.73241248423588      ;  -48333.689598114986      ;  -48150.957185630752      ;   4.9927237120735510      ;   8.1910408167007538E-032 ;   5.9289385553798812E-002
          14 ;   182.70637499335641      ;  -48333.628566083971      ;  -48150.922191090613      ;   4.9920123002536725      ;   4.0596998286062606E-031 ;   5.9280827186713389E-002
          15 ;   182.67944281701912      ;  -48333.574192439613      ;  -48150.894749622596      ;   4.9912764433053001      ;   1.0494289233676843E-030 ;   5.9271971043003829E-002
          16 ;   182.65159669274038      ;  -48333.519014863065      ;  -48150.867418170325      ;   4.9905156149274008      ;   1.9056039862121614E-031 ;   5.9264097752702437E-002
          17 ;   182.62281721641730      ;  -48333.461458403966      ;  -48150.838641187547      ;   4.9897292849495853      ;   2.0873025312569660E-032 ;   5.9254377150050497E-002
          18 ;   182.59308529555688      ;  -48333.402764839695      ;  -48150.809679544138      ;   4.9889169317153295      ;   1.4779154445976747E-031 ;   5.9247686393896777E-002
          19 ;   182.56238208480224      ;  -48333.338033052896      ;  -48150.775650968091      ;   4.9880780403206009      ;   1.0538277182999933E-030 ;   5.9237594416546795E-002
          20 ;   182.53068883740119      ;  -48333.274904799146      ;  -48150.744215961742      ;   4.9872120985554664      ;   1.9064857133986350E-032 ;   5.9228010317154106E-002
          21 ;   182.49798714569980      ;  -48333.203871927450      ;  -48150.705884781753      ;   4.9863186034750795      ;   2.8654693736221683E-031 ;   5.9217511427595543E-002
          22 ;   182.46425822999907      ;  -48333.127456711751      ;  -48150.663198481750      ;   4.9853970419693114      ;   1.7611559380341057E-031 ;   5.9203568846238480E-002
          23 ;   182.42948368542000      ;  -48333.057142047270      ;  -48150.627658361853      ;   4.9844469111690950      ;   1.3068240445826569E-031 ;   5.9191420567454606E-002
          24 ;   182.39364567826948      ;  -48332.986236525961      ;  -48150.592590847693      ;   4.9834677238117022      ;   1.0937386535786033E-031 ;   5.9179714230917946E-002
          25 ;   182.35672617111157      ;  -48332.915471803411      ;  -48150.558745632297      ;   4.9824589870675196      ;   1.6910807524478433E-031 ;   5.9167648879748937E-002
          26 ;   182.31870755247348      ;  -48332.832013294450      ;  -48150.513305741973      ;   4.9814202197454422      ;   1.2469847539501390E-030 ;   5.9155219122265526E-002
          27 ;   182.27957296636015      ;  -48332.757073991306      ;  -48150.477501024943      ;   4.9803509612959136      ;   3.7507459248149314E-031 ;   5.9143149130584854E-002
          28 ;   182.23930564562485      ;  -48332.682429235647      ;  -48150.443123590019      ;   4.9792507535969976      ;   1.9916526339743514E-031 ;   5.9131624886403139E-002
          29 ;   182.19788883585863      ;  -48332.593710066474      ;  -48150.395821230617      ;   4.9781191388747397      ;   1.3639850641186439E-031 ;   5.9121075250145802E-002
          30 ;   182.15530624310094      ;  -48332.512387373572      ;  -48150.357081130474      ;   4.9769556719358947      ;   3.2416980710367283E-032 ;   5.9108580723321119E-002
          31 ;   182.11154182066417      ;  -48332.429724409318      ;  -48150.318182588657      ;   4.9757599143432891      ;   1.1581853155070920E-031 ;   5.9094357144334829E-002
          32 ;   182.06657991657468      ;  -48332.341594580750      ;  -48150.275014664177      ;   4.9745314384443757      ;   4.0979892444725024E-031 ;   5.9079736896126556E-002
          33 ;   182.02040558588865      ;  -48332.249503496583      ;  -48150.229097910691      ;   4.9732698359045076      ;   3.8426403907999515E-031 ;   5.9064715889906041E-002
          34 ;   181.97300379129081      ;  -48332.154701954161      ;  -48150.181698162873      ;   4.9719746958652138      ;   1.0399367834586498E-031 ;   5.9049289830514773E-002
          35 ;   181.92435964111456      ;  -48332.059975579774      ;  -48150.135615938656      ;   4.9706456114475364      ;   1.0978388501131559E-031 ;   5.9033451982503815E-002
          36 ;   181.87445881305604      ;  -48331.959151498202      ;  -48150.084692685145      ;   4.9692821913289373      ;   1.1377206586734711E-031 ;   5.9017198769154809E-002
          37 ;   181.82328738212044      ;  -48331.863466166469      ;  -48150.040178784351      ;   4.9678840550424548      ;   1.1616461772727262E-031 ;   5.8998542928525272E-002
          38 ;   181.77083130653619      ;  -48331.762395709986      ;  -48149.991564403448      ;   4.9664508189304222      ;   6.8810451961260021E-032 ;   5.8981513331145645E-002
          39 ;   181.71707695029340      ;  -48331.656424431727      ;  -48149.939347481435      ;   4.9649821104216558      ;   2.6494746131376532E-032 ;   5.8966005387991578E-002
          40 ;   181.66201138860438      ;  -48331.552183050997      ;  -48149.890171662395      ;   4.9634775763774490      ;   8.7808469551223057E-032 ;   5.8947972571643970E-002
          41 ;   181.60562216356698      ;  -48331.442734616176      ;  -48149.837112452609      ;   4.9619368764155682      ;   3.8186052342134645E-032 ;   5.8929544067614317E-002
          42 ;   181.54789716636535      ;  -48331.324470202104      ;  -48149.776573035735      ;   4.9603596796917326      ;   1.1396697050609494E-031 ;   5.8911880632135573E-002
          43 ;   181.48882442235094      ;  -48331.206326260901      ;  -48149.717501838553      ;   4.9587456590274792      ;   2.4445787174509620E-032 ;   5.8893547451466619E-002
          44 ;   181.42839238988384      ;  -48331.085463728341      ;  -48149.657071338457      ;   4.9570944990752386      ;   1.1207692058373405E-031 ;   5.8873991198005148E-002
          45 ;   181.36659018572922      ;  -48330.966213009946      ;  -48149.599622824215      ;   4.9554059024768442      ;   5.0251252159320216E-031 ;   5.8854556690411119E-002
          46 ;   181.30340704079646      ;  -48330.839080301754      ;  -48149.535673260958      ;   4.9536795749927292      ;   1.1308981707300437E-031 ;   5.8834041870287596E-002
          47 ;   181.23883264506486      ;  -48330.709421092259      ;  -48149.470588447191      ;   4.9519152349264122      ;   3.4562979192981484E-032 ;   5.8814323127447457E-002
          48 ;   181.17285767987212      ;  -48330.575424380135      ;  -48149.402566700264      ;   4.9501126276678260      ;   3.4041645610170179E-031 ;   5.8793045860197526E-002
          49 ;   181.10547271021284      ;  -48330.436815445166      ;  -48149.331342734949      ;   4.9482714954281724      ;   5.7046395001745304E-031 ;   5.8773305277795687E-002
          50 ;   181.03666849376430      ;  -48330.303048430593      ;  -48149.266379936831      ;   4.9463915856832008      ;   3.2678046260416254E-031 ;   5.8751129763330530E-002
          51 ;   180.96643696924838      ;  -48330.165146693915      ;  -48149.198709724667      ;   4.9444726781778412      ;   1.1076398917488675E-030 ;   5.8728484225544914E-002
          52 ;   180.89477016741250      ;  -48330.021302193687      ;  -48149.126532026276      ;   4.9425145551714831      ;   5.9432522141665993E-031 ;   5.8705365288072867E-002
          53 ;   180.82166044976816      ;  -48329.874315871442      ;  -48149.052655421678      ;   4.9405170079607741      ;   2.6830172325325951E-031 ;   5.8681769583267714E-002
          54 ;   180.74710090005874      ;  -48329.723405577170      ;  -48148.976304677111      ;   4.9384798475756027      ;   4.3954524597556141E-031 ;   5.8657697626299674E-002
          55 ;   180.67108436001087      ;  -48329.575725171548      ;  -48148.904640811539      ;   4.9364028784334293      ;   2.9503456874847402E-031 ;   5.8634192409768866E-002
          56 ;   180.59360430851552      ;  -48329.429469617055      ;  -48148.835865308538      ;   4.9342859223605826      ;   4.6048535850833044E-031 ;   5.8609183950314080E-002
          57 ;   180.51465508534682      ;  -48329.274643909856      ;  -48148.759988824509      ;   4.9321288247050408      ;   2.8689962823680629E-031 ;   5.8583690350457907E-002
          58 ;   180.43423164970253      ;  -48329.116869641788      ;  -48148.682637992082      ;   4.9299314477389506      ;   4.5500327751753868E-031 ;   5.8558816384462808E-002
          59 ;   180.35232911534627      ;  -48328.953065122267      ;  -48148.600736006920      ;   4.9276936579577137      ;   2.0104740419390986E-031 ;   5.8529919045322315E-002
          60 ;   180.26894294987915      ;  -48328.787061374038      ;  -48148.518118424159      ;   4.9254153315243876      ;   5.2706786419621837E-031 ;   5.8502999322528247E-002
          61 ;   180.18406954373825      ;  -48328.615011368718      ;  -48148.430941824983      ;   4.9230963698163812      ;   1.4080374092474889E-032 ;   5.8476449855078529E-002
          62 ;   180.09770582598037      ;  -48328.445100266268      ;  -48148.347394440287      ;   4.9207366889275344      ;   1.3376439432633525E-030 ;   5.8448549845522661E-002
          63 ;   180.00984919153737      ;  -48328.272459599888      ;  -48148.262610408354      ;   4.9183362176806176      ;   6.9241821301084410E-032 ;   5.8420398317715554E-002
          64 ;   179.92049711240611      ;  -48328.087612218078      ;  -48148.167115105673      ;   4.9158948870040371      ;   1.2053800108392664E-031 ;   5.8389557607715470E-002
          65 ;   179.82964750787923      ;  -48327.905145553566      ;  -48148.075498045684      ;   4.9134126400474836      ;   8.9982736141388619E-032 ;   5.8359826603841730E-002
          66 ;   179.73729918459111      ;  -48327.721984878357      ;  -48147.984685693766      ;   4.9108894442050808      ;   8.3091904433962556E-031 ;   5.8330738013156518E-002
          67 ;   179.64345144470954      ;  -48327.541457145162      ;  -48147.898005700452      ;   4.9083252804102901      ;   7.2261047549399949E-032 ;   5.8300473428681401E-002
          68 ;   179.54810368053870      ;  -48327.358185064601      ;  -48147.810081384065      ;   4.9057201320592139      ;   1.0423668169798728E-031 ;   5.8267107437317375E-002
          69 ;   179.45125599481281      ;  -48327.163721959048      ;  -48147.712465964236      ;   4.9030740019588563      ;   4.1220191173005685E-031 ;   5.8235863266311472E-002
          70 ;   179.35290966701132      ;  -48326.973172925587      ;  -48147.620263258577      ;   4.9003869250679362      ;   1.0679008272246396E-032 ;   5.8204125758875888E-002
          71 ;   179.25306598759207      ;  -48326.769133457216      ;  -48147.516067469624      ;   4.8976589366450867      ;   9.7313591819814902E-032 ;   5.8171893581960232E-002
          72 ;   179.15172632467915      ;  -48326.568758274894      ;  -48147.417031950215      ;   4.8948900740710091      ;   7.8306063464694401E-032 ;   5.8140209558765164E-002
          73 ;   179.04889304297723      ;  -48326.369491446996      ;  -48147.320598404018      ;   4.8920804019555799      ;   1.2347371092570318E-031 ;   5.8107611574687114E-002
          74 ;   178.94456884649694      ;  -48326.161610720417      ;  -48147.217041873919      ;   4.8892299941793596      ;   1.0150134601051138E-031 ;   5.8073941462771943E-002
          75 ;   178.83875723175615      ;  -48325.947938889389      ;  -48147.109181657630      ;   4.8863389462763314      ;   9.7373017590304014E-032 ;   5.8038085944620288E-002
          76 ;   178.73146242020735      ;  -48325.736932685977      ;  -48147.005470265773      ;   4.8834073735874863      ;   1.2162479176029931E-031 ;   5.8004153910552698E-002
          77 ;   178.62268856013532      ;  -48325.521944582229      ;  -48146.899256022094      ;   4.8804353894547896      ;   3.8065965000236715E-031 ;   5.7971273120866806E-002
          78 ;   178.51244053592390      ;  -48325.298119995103      ;  -48146.785679459179      ;   4.8774231273322224      ;   1.7595684369445080E-032 ;   5.7935693228517562E-002
          79 ;   178.40072385680500      ;  -48325.079549748167      ;  -48146.678825891358      ;   4.8743707377463315      ;   3.4857339025779616E-031 ;   5.7899630196917677E-002
          80 ;   178.28754461819676      ;  -48324.854726358149      ;  -48146.567181739956      ;   4.8712783872397836      ;   2.5687074121519693E-032 ;   5.7863082185573352E-002
          81 ;   178.17290959650106      ;  -48324.628015181166      ;  -48146.455105584668      ;   4.8681462609614030      ;   4.7002745496005519E-031 ;   5.7826055322223409E-002
          82 ;   178.05682596866973      ;  -48324.395079168069      ;  -48146.338253199399      ;   4.8649745550041352      ;   4.0103664933538589E-031 ;   5.7788549162651609E-002
          83 ;   177.93930128417401      ;  -48324.159516813233      ;  -48146.220215529058      ;   4.8617634756391936      ;   7.8116009151059430E-032 ;   5.7750567182565292E-002
          84 ;   177.82034392011673      ;  -48323.921345028430      ;  -48146.101001108313      ;   4.8585132517507148      ;   3.1303342200964750E-031 ;   5.7712937886451939E-002
          85 ;   177.69996307539139      ;  -48323.676230514029      ;  -48145.976267438637      ;   4.8552241346763649      ;   5.6843673296539957E-031 ;   5.7675745408290388E-002
          86 ;   177.57816812438389      ;  -48323.435711470680      ;  -48145.857543346297      ;   4.8518963805486912      ;   7.3994391724849407E-031 ;   5.7638191733234520E-002
          87 ;   177.45496846856540      ;  -48323.185983141484      ;  -48145.731014672921      ;   4.8485302462402506      ;   5.8368359367127274E-032 ;   5.7598443175282281E-002
          88 ;   177.33037428814563      ;  -48322.936537322224      ;  -48145.606163034077      ;   4.8451260099008566      ;   3.0984977541591844E-031 ;   5.7557268843073002E-002
          89 ;   177.20439694259744      ;  -48322.683045547252      ;  -48145.478648604658      ;   4.8416839819007373      ;   6.0119167033334688E-032 ;   5.7516636752484300E-002
          90 ;   177.07704799357887      ;  -48322.427322117728      ;  -48145.350274124146      ;   4.8382044781343554      ;   3.2941863518579921E-031 ;   5.7475550811472313E-002
          91 ;   176.94833923117216      ;  -48322.166063369456      ;  -48145.217724138281      ;   4.8346878207374289      ;   3.1147637934928338E-031 ;   5.7434082839047496E-002
          92 ;   176.81828297962849      ;  -48321.900829585960      ;  -48145.082546606332      ;   4.8311343464404635      ;   2.1562768891195823E-031 ;   5.7392126602491725E-002
          93 ;   176.68689198079534      ;  -48321.642653930074      ;  -48144.955761949277      ;   4.8275444033838184      ;   5.0048634884452499E-032 ;   5.7349728791942514E-002
          94 ;   176.55417975978241      ;  -48321.378763729619      ;  -48144.824583969836      ;   4.8239183611085288      ;   5.1332934927357029E-032 ;   5.7305114748561481E-002
          95 ;   176.42016087932575      ;  -48321.110212176442      ;  -48144.690051297119      ;   4.8202566175063435      ;   2.9867440235085228E-031 ;   5.7262470844267610E-002
          96 ;   176.28484993142447      ;  -48320.839076699791      ;  -48144.554226768363      ;   4.8165595712685993      ;   7.7142827536606812E-032 ;   5.7218818925196792E-002
          97 ;   176.14826177370162      ;  -48320.568714371533      ;  -48144.420452597835      ;   4.8128276283440803      ;   7.9429373993214709E-032 ;   5.7174744184746884E-002
          98 ;   176.01041215043233      ;  -48320.294293283107      ;  -48144.283881132673      ;   4.8090612189072415      ;   7.8226051676045447E-031 ;   5.7130251828839469E-002
          99 ;   175.87131741292285      ;  -48320.016869712395      ;  -48144.145552299473      ;   4.8052607897182007      ;   2.2830618592087259E-031 ;   5.7085347314301906E-002
         100 ;   175.73099448067967      ;  -48319.740317434036      ;  -48144.009322953360      ;   4.8014268030618030      ;   1.5277918495972898E-030 ;   5.7040035239479828E-002
         101 ;   175.58946044626487      ;  -48319.452639422816      ;  -48143.863178976550      ;   4.7975597259511593      ;   7.9998335704666144E-032 ;   5.6994323857320048E-002
         102 ;   175.44673278036726      ;  -48319.167438209544      ;  -48143.720705429179      ;   4.7936600357308690      ;   2.5166835680199828E-031 ;   5.6948214972491612E-002
         103 ;   175.30282982326702      ;  -48318.876046127567      ;  -48143.573216304299      ;   4.7897282335049640      ;   8.1224531742274006E-031 ;   5.6902608462258392E-002
         104 ;   175.15777070700238      ;  -48318.590277511685      ;  -48143.432506804682      ;   4.7857648420103587      ;   7.8340391382684641E-032 ;   5.6855743692997160E-002
         105 ;   175.01157472168501      ;  -48318.292507378552      ;  -48143.280932656868      ;   4.7817703883029825      ;   1.1818806603801402E-031 ;   5.6808501225850405E-002
         106 ;   174.86426161987475      ;  -48317.988151111567      ;  -48143.123889491690      ;   4.7777454120740508      ;   3.4057649206280848E-031 ;   5.6759237456472683E-002
         107 ;   174.71585151000741      ;  -48317.688000564187      ;  -48142.972149054178      ;   4.7736904627381609      ;   3.8087881761850400E-031 ;   5.6711291424928263E-002
         108 ;   174.56636486760317      ;  -48317.388768859964      ;  -48142.822403992359      ;   4.7696060997397094      ;   9.2235697708534200E-032 ;   5.6662988426605665E-002
         109 ;   174.41582305169396      ;  -48317.082306722150      ;  -48142.666483670459      ;   4.7654929066628409      ;   1.7755778018461116E-031 ;   5.6614334229624329E-002
